AE-441-1-3
Integration time [ms]:  10,000
Averaging Nr. [scans]: 33
Smoothing Nr. [pixels]: 0
Data measured with spectrometer [name]: AvaSpec-ULS-TEC-EVO
Wave   ;Sample   ;Dark     ;Reference;Absorbance
[nm]   ;[counts] ;[counts] ;[counts] ;[A.U]

 179,38;   18,633;   -5,697;  183,271; 0,89024
 179,98;   19,388;   -6,394;  183,951; 0,86822
 180,58;   27,395;   -5,697;  195,359; 0,78359
 181,18;   19,986;   -5,727;  191,960; 0,88583
 181,78;   18,490;   -7,030;  187,049; 0,88109
 182,38;   18,307;   -5,879;  185,918; 0,89928
 182,97;   18,828;   -7,515;  192,438; 0,88026
 183,57;   17,943;   -7,576;  190,767; 0,89055
 184,17;   12,998;   -7,061;  190,457; 0,99330
 184,77;   12,389;   -8,667;  188,500; 0,97146
 185,37;    8,053;   -6,455;  189,724; 1,13106
 185,97;    6,044;   -6,152;  190,974; 1,20854
 186,57;    8,506;   -8,515;  192,472; 1,07218
 187,17;    5,360;   -5,970;  195,959; 1,25099
 187,77;   -7,685;   -7,424;  182,534; 5,00000
 188,37;    3,865;   -7,697;  192,077; 1,23752
 188,97;   -9,996;   -7,485;  185,852; 5,00000
 189,57;  -10,639;   -7,758;  190,202; 5,00000
 190,17;  -17,103;   -6,273;  186,389; 5,00000
 190,77;  -23,474;   -7,606;  186,496; 5,00000
 191,37;  -22,848;   -6,455;  187,462; 5,00000
 191,96;  -25,704;   -7,303;  189,901; 5,00000
 192,56;  -45,565;   -7,455;  177,583; 5,00000
 193,16;  -40,791;   -5,364;  188,529; 5,00000
 193,76;  -27,052;   -6,515;  210,966; 5,00000
 194,36;  -51,604;   -7,091;  187,436; 5,00000
 194,96;  -57,123;   -6,121;  191,774; 5,00000
 195,56;  -39,249;   -6,818;  212,295; 5,00000
 196,16;  -22,189;   -6,394;  234,356; 5,00000
 196,76;    3,104;   -6,970;  267,851; 1,43584
 197,36;    4,226;   -6,818;  274,036; 1,40535
 197,95;   16,858;   -5,576;  298,560; 1,13216
 198,55;    8,926;   -6,333;  310,541; 1,31735
 199,15;   16,994;   -7,030;  331,616; 1,14909
 199,75;   24,348;   -5,303;  377,558; 1,11100
 200,35;   12,612;   -7,576;  432,867; 1,33881
 200,95;   20,346;   -6,788;  530,427; 1,29663
 201,55;   18,967;   -6,818;  661,756; 1,41378
 202,15;   15,854;   -5,970;  827,626; 1,58202
 202,74;   25,332;   -5,848; 1038,464; 1,52495
 203,34;   19,397;   -7,303; 1260,095; 1,67640
 203,94;   31,279;   -6,000; 1507,388; 1,60849
 204,54;   21,195;   -6,000; 1737,034; 1,80682
 205,14;   27,618;   -6,939; 1976,846; 1,75896
 205,74;   25,325;   -6,212; 2214,693; 1,84771
 206,34;   24,207;   -6,212; 2463,438; 1,90950
 206,93;   30,054;   -5,576; 2711,067; 1,88222
 207,53;   28,251;   -5,545; 2975,980; 1,94556
 208,13;   24,779;   -7,697; 3226,451; 1,99819
 208,73;   33,552;   -6,000; 3520,691; 1,95020
 209,33;   22,002;   -6,424; 3847,814; 2,13223
 209,93;   32,227;   -6,182; 4213,379; 2,04084
 210,52;   30,629;   -6,576; 4598,400; 2,09262
 211,12;   39,067;   -6,121; 5043,692; 2,04825
 211,72;   37,393;   -4,667; 5515,708; 2,11810
 212,32;   38,228;   -6,515; 6010,661; 2,12866
 212,92;   37,341;   -6,152; 6494,608; 2,17455
 213,52;   35,919;   -6,061; 6943,747; 2,21893
 214,11;   36,276;   -5,606; 7322,643; 2,24297
 214,71;   42,325;   -5,000; 7558,727; 2,20364
 215,31;   36,080;   -6,061; 7472,132; 2,24910
 215,91;   46,431;   -5,879; 6942,027; 2,12327
 216,51;   37,088;   -4,576; 5755,033; 2,14063
 217,10;   33,182;   -5,030; 4118,990; 2,03312
 217,70;   29,641;   -5,364; 3361,560; 1,98311
 218,30;   38,585;   -5,333; 4972,892; 2,05443
 218,90;   35,886;   -6,212; 8297,274; 2,29499
 219,50;   51,272;   -3,939;11675,043; 2,32538
 220,09;   51,032;   -5,970;14367,909; 2,40168
 220,69;   54,208;   -5,000;16414,025; 2,44297
 221,29;   59,957;   -4,788;17914,641; 2,44212
 221,89;   51,080;   -6,242;19158,131; 2,52417
 222,49;   63,546;   -4,848;20175,232; 2,46990
 223,08;   63,598;   -5,727;21071,574; 2,48292
 223,68;   64,836;   -5,576;21915,307; 2,49321
 224,28;   62,818;   -4,515;22714,564; 2,52816
 224,88;   60,992;   -5,091;23471,271; 2,55054
 225,47;   61,293;   -3,939;24186,896; 2,56919
 226,07;   67,311;   -5,212;24963,004; 2,53691
 226,67;   65,572;   -4,121;25738,084; 2,56746
 227,27;   70,254;   -3,848;26517,816; 2,55377
 227,87;   67,621;   -4,394;27210,955; 2,57739
 228,46;   73,725;   -4,788;27974,336; 2,55189
 229,06;   69,914;   -4,091;28742,711; 2,58933
 229,66;   73,765;   -6,000;29454,549; 2,56743
 230,26;   72,603;   -3,970;30170,123; 2,59556
 230,85;   72,390;   -4,939;30845,266; 2,60091
 231,45;   76,234;   -6,061;31559,936; 2,58385
 232,05;   87,537;   -5,182;32206,180; 2,54084
 232,64;   85,133;   -4,485;32789,664; 2,56340
 233,24;   91,033;   -4,303;33352,063; 2,54392
 233,84;   91,254;   -5,576;33859,813; 2,54375
 234,44;  101,307;   -5,394;34365,984; 2,50803
 235,03;  106,857;   -4,303;34737,582; 2,49490
 235,63;  120,935;   -5,727;35140,262; 2,44323
 236,23;  145,585;   -4,545;35501,039; 2,37383
 236,83;  164,426;   -4,152;35795,965; 2,32709
 237,42;  180,738;   -6,424;36151,320; 2,28598
 238,02;  194,625;   -5,273;36476,672; 2,26127
 238,62;  235,922;   -5,424;36755,277; 2,18274
 239,21;  260,804;   -4,182;36981,414; 2,14481
 239,81;  299,742;   -3,970;37279,258; 2,08905
 240,41;  341,990;   -6,000;37579,531; 2,03345
 241,00;  392,437;   -4,879;37772,488; 1,97810
 241,60;  436,813;   -5,758;37922,195; 1,93298
 242,20;  503,515;   -6,030;38028,563; 1,87300
 242,80;  562,016;   -5,030;38109,902; 1,82748
 243,39;  634,303;   -5,485;38227,320; 1,77640
 243,99;  705,250;   -4,515;38294,785; 1,73208
 244,59;  784,974;   -5,182;38311,953; 1,68568
 245,18;  864,316;   -5,545;38348,125; 1,64436
 245,78;  951,472;   -5,576;38382,453; 1,60326
 246,38; 1043,316;   -5,606;38414,793; 1,56382
 246,97; 1147,367;   -6,455;38512,613; 1,52354
 247,57; 1249,820;   -4,061;38505,090; 1,48731
 248,17; 1361,204;   -5,333;38553,242; 1,45050
 248,76; 1460,736;   -3,636;38629,707; 1,42131
 249,36; 1581,417;   -6,333;38638,281; 1,38631
 249,96; 1691,458;   -5,667;38766,492; 1,35881
 250,55; 1832,895;   -4,485;38891,996; 1,32571
 251,15; 1946,798;   -5,667;38915,746; 1,29961
 251,75; 2086,618;   -5,818;39007,301; 1,27056
 252,34; 2231,677;   -5,121;39112,746; 1,24275
 252,94; 2385,569;   -6,424;39253,223; 1,21519
 253,54; 2526,375;   -4,788;39331,664; 1,19148
 254,13; 2670,267;   -6,061;39393,199; 1,16795
 254,73; 2837,840;   -5,394;39401,516; 1,14176
 255,32; 2980,085;   -4,455;39447,074; 1,12119
 255,92; 3144,980;   -5,909;39402,656; 1,09716
 256,52; 3298,498;   -4,636;39423,309; 1,07688
 257,11; 3449,554;   -5,061;39351,406; 1,05662
 257,71; 3602,517;   -6,818;39242,395; 1,03640
 258,31; 3741,080;   -3,818;39084,195; 1,01860
 258,90; 3867,878;   -6,576;38841,102; 1,00115
 259,50; 3992,803;   -4,424;38477,199; 0,98349
 260,09; 4076,869;   -5,455;38043,656; 0,96944
 260,69; 4159,201;   -6,152;37515,285; 0,95463
 261,29; 4218,246;   -4,394;36955,039; 0,94214
 261,88; 4275,387;   -5,545;36389,703; 0,92951
 262,48; 4333,026;   -6,909;35981,145; 0,91868
 263,07; 4414,067;   -4,576;35781,844; 0,90843
 263,67; 4513,542;   -6,364;35888,934; 0,89991
 264,27; 4635,601;   -5,242;36052,168; 0,89040
 264,86; 4738,881;   -6,030;36273,547; 0,88343
 265,46; 4811,620;   -5,030;36401,313; 0,87843
 266,05; 4897,748;   -5,333;36462,355; 0,87144
 266,65; 4951,631;   -6,667;36441,137; 0,86634
 267,24; 5006,745;   -4,727;36447,398; 0,86176
 267,84; 5042,384;   -5,667;36364,387; 0,85762
 268,44; 5059,973;   -7,455;36193,766; 0,85394
 269,03; 5074,328;   -4,667;36096,773; 0,85175
 269,63; 5092,851;   -6,030;35933,605; 0,84810
 270,22; 5073,312;   -5,788;35708,254; 0,84705
 270,82; 5058,992;   -3,909;35421,059; 0,84491
 271,41; 5045,608;   -6,636;35158,395; 0,84263
 272,01; 5027,856;   -4,848;34902,125; 0,84111
 272,61; 5028,337;   -5,758;34781,617; 0,83950
 273,20; 5063,048;   -5,485;34888,551; 0,83787
 273,80; 5119,319;   -4,394;35064,117; 0,83533
 274,39; 5194,210;   -6,000;35388,973; 0,83292
 274,99; 5242,477;   -5,606;35621,758; 0,83178
 275,58; 5315,432;   -5,636;35844,973; 0,82850
 276,18; 5356,818;   -5,939;36002,504; 0,82702
 276,77; 5427,334;   -4,909;36181,840; 0,82357
 277,37; 5488,810;   -5,576;36334,879; 0,82047
 277,96; 5563,325;   -4,970;36396,391; 0,81540
 278,56; 5618,536;   -6,121;36503,145; 0,81231
 279,15; 5680,827;   -6,212;36550,648; 0,80808
 279,75; 5735,875;   -5,030;36674,930; 0,80545
 280,34; 5810,194;   -5,273;36742,938; 0,80065
 280,94; 5878,588;   -6,061;36824,090; 0,79648
 281,53; 5954,948;   -4,273;36883,555; 0,79169
 282,13; 6059,202;   -5,848;36865,199; 0,78385
 282,73; 6130,910;   -5,636;36903,324; 0,77921
 283,32; 6245,425;   -4,727;36914,262; 0,77136
 283,92; 6351,471;   -5,091;36814,660; 0,76286
 284,51; 6503,494;   -4,788;36905,891; 0,75369
 285,10; 6627,090;   -4,121;36902,527; 0,74551
 285,70; 6755,126;   -4,939;36850,105; 0,73655
 286,29; 6880,497;   -5,000;36768,574; 0,72760
 286,89; 6984,834;   -5,182;36587,906; 0,71892
 287,48; 7018,361;   -4,970;36180,215; 0,71199
 288,08; 7037,715;   -5,576;35564,789; 0,70331
 288,67; 6999,979;   -6,212;34796,434; 0,69613
 289,27; 7003,661;   -5,030;34253,469; 0,68913
 289,86; 7108,637;   -5,848;34207,477; 0,68205
 290,46; 7310,270;   -5,303;34607,641; 0,67499
 291,05; 7588,671;   -5,727;35354,926; 0,66803
 291,65; 7933,761;   -5,606;36101,219; 0,65780
 292,24; 8277,809;   -3,818;36783,230; 0,64758
 292,84; 8580,632;   -5,848;37216,207; 0,63699
 293,43; 8866,416;   -5,667;37457,422; 0,62558
 294,03; 9144,849;   -5,818;37593,473; 0,61373
 294,62; 9391,156;   -5,515;37634,289; 0,60267
 295,21; 9605,307;   -4,848;37602,523; 0,59254
 295,81; 9805,924;   -5,879;37394,438; 0,58113
 296,40; 9909,607;   -5,182;36968,965; 0,57161
 297,00; 9961,133;   -3,879;36259,848; 0,56099
 297,59; 9834,852;   -6,424;35104,309; 0,55239
 298,19; 9723,631;   -4,758;34116,621; 0,54499
 298,78; 9993,918;   -4,727;34359,102; 0,53616
 299,37;10455,592;   -5,030;35360,055; 0,52902
 299,97;10893,261;   -5,364;36138,246; 0,52066
 300,56;11125,948;   -5,333;36442,344; 0,51512
 301,16;11285,262;   -5,576;36449,012; 0,50903
 301,75;11428,434;   -5,697;36363,313; 0,50253
 302,35;11567,646;   -5,242;36253,352; 0,49597
 302,94;11611,615;   -5,152;36109,250; 0,49260
 303,53;11680,702;   -5,818;35916,410; 0,48768
 304,13;11726,440;   -5,061;35676,359; 0,48309
 304,72;11750,833;   -4,576;35475,926; 0,47975
 305,32;11790,027;   -6,061;35242,215; 0,47540
 305,91;11822,534;   -5,121;34899,070; 0,46998
 306,50;11829,335;   -5,273;34630,727; 0,46637
 307,10;11840,567;   -4,879;34300,363; 0,46181
 307,69;11802,150;   -4,606;33922,133; 0,45841
 308,28;11794,893;   -5,606;33516,250; 0,45343
 308,88;11751,147;   -4,970;33112,422; 0,44979
 309,47;11662,290;   -4,121;32652,670; 0,44704
 310,07;11574,431;   -6,727;32194,479; 0,44412
 310,66;11528,856;   -4,394;31768,002; 0,44010
 311,25;11544,026;   -4,242;31525,541; 0,43620
 311,85;11586,434;   -5,000;31415,010; 0,43307
 312,44;11683,788;   -4,242;31366,596; 0,42878
 313,03;11757,108;   -4,879;31280,365; 0,42486
 313,63;11783,528;   -4,273;31103,824; 0,42144
 314,22;11792,283;   -5,697;30937,867; 0,41876
 314,81;11820,663;   -7,091;30669,145; 0,41390
 315,41;11787,093;   -4,364;30366,695; 0,41089
 316,00;11756,716;   -5,606;30028,918; 0,40713
 316,59;11682,715;   -5,091;29628,516; 0,40405
 317,19;11607,665;   -5,606;29184,859; 0,40029
 317,78;11485,651;   -5,485;28678,227; 0,39727
 318,37;11461,966;   -4,545;28432,963; 0,39446
 318,97;11477,198;   -5,909;28275,779; 0,39145
 319,56;11594,767;   -5,091;28321,191; 0,38774
 320,15;11681,178;   -5,818;28351,355; 0,38496
 320,75;11792,011;   -6,061;28379,896; 0,38129
 321,34;11856,987;   -4,879;28308,305; 0,37784
 321,93;11878,686;   -5,364;28197,891; 0,37533
 322,53;11912,857;   -6,061;28085,555; 0,37234
 323,12;11929,157;   -5,273;27987,084; 0,37024
 323,71;11945,861;   -5,455;27858,551; 0,36763
 324,31;11986,999;   -4,818;27718,012; 0,36395
 324,90;11989,745;   -4,697;27643,215; 0,36268
 325,49;12042,138;   -5,242;27555,084; 0,35939
 326,09;12100,456;   -4,788;27509,270; 0,35658
 326,68;12164,178;   -5,788;27496,961; 0,35409
 327,27;12207,812;   -5,848;27474,945; 0,35218
 327,86;12288,908;   -4,939;27486,283; 0,34951
 328,46;12355,991;   -5,606;27485,877; 0,34712
 329,05;12447,896;   -4,061;27518,600; 0,34445
 329,64;12523,875;   -5,606;27560,055; 0,34244
 330,23;12607,453;   -6,030;27603,438; 0,34022
 330,83;12652,328;   -4,212;27570,951; 0,33820
 331,42;12697,941;   -4,818;27557,576; 0,33642
 332,01;12723,107;   -5,636;27446,115; 0,33378
 332,61;12680,628;   -4,364;27288,061; 0,33275
 333,20;12649,646;   -6,212;27131,020; 0,33127
 333,79;12655,290;   -4,515;27067,818; 0,33010
 334,38;12734,497;   -6,576;27101,938; 0,32790
 334,98;12881,707;   -5,212;27294,746; 0,32601
 335,57;13056,038;   -5,030;27605,943; 0,32510
 336,16;13182,159;   -5,758;27776,881; 0,32360
 336,75;13304,003;   -5,091;27895,553; 0,32147
 337,34;13401,733;   -5,606;27979,238; 0,31958
 337,94;13456,754;   -5,636;27995,480; 0,31805
 338,53;13496,781;   -4,515;27947,764; 0,31604
 339,12;13476,296;   -5,212;27894,400; 0,31586
 339,71;13434,728;   -4,697;27727,506; 0,31460
 340,31;13411,501;   -4,364;27532,813; 0,31230
 340,90;13320,001;   -5,303;27213,021; 0,31018
 341,49;13083,271;   -5,091;26642,678; 0,30878
 342,08;12703,502;   -5,606;25822,486; 0,30798
 342,67;12406,312;   -5,515;25204,768; 0,30774
 343,27;12366,153;   -5,485;25085,512; 0,30709
 343,86;12582,451;   -5,788;25377,877; 0,30459
 344,45;12767,240;   -4,273;25714,488; 0,30401
 345,04;12842,051;   -4,394;25836,863; 0,30353
 345,63;12837,876;   -5,333;25796,635; 0,30298
 346,23;12854,039;   -4,091;25690,494; 0,30066
 346,82;12747,462;   -6,939;25385,057; 0,29904
 347,41;12579,549;   -5,273;24999,246; 0,29817
 348,00;12408,641;   -5,636;24527,104; 0,29582
 348,59;12219,349;   -5,394;24038,867; 0,29377
 349,19;12059,098;   -4,030;23647,756; 0,29240
 349,78;11939,365;   -5,121;23311,572; 0,29050
 350,37;11836,052;   -5,667;23045,695; 0,28928
 350,96;11688,063;   -4,727;22711,391; 0,28842
 351,55;11554,374;   -5,727;22376,773; 0,28695
 352,14;11416,434;   -5,636;22003,738; 0,28486
 352,74;11241,038;   -5,727;21613,639; 0,28382
 353,33;11013,635;   -6,152;21153,525; 0,28334
 353,92;10808,775;   -4,000;20674,305; 0,28158
 354,51;10600,546;   -6,000;20254,504; 0,28108
 355,10;10458,546;   -5,121;19899,020; 0,27926
 355,69;10370,350;   -4,636;19632,234; 0,27708
 356,28;10403,595;   -5,970;19621,467; 0,27543
 356,88;10429,803;   -4,303;19694,680; 0,27599
 357,47;10497,644;   -5,545;19776,094; 0,27494
 358,06;10525,813;   -4,909;19780,742; 0,27389
 358,65;10531,514;   -4,394;19740,797; 0,27279
 359,24;10506,202;   -6,970;19632,350; 0,27139
 359,83;10467,863;   -4,182;19499,529; 0,27009
 360,42;10401,730;   -5,000;19359,127; 0,26968
 361,01;10355,396;   -6,182;19216,906; 0,26840
 361,61;10273,033;   -4,636;19010,762; 0,26721
 362,20;10200,458;   -7,030;18820,701; 0,26588
 362,79;10090,002;   -4,273;18539,268; 0,26412
 363,38; 9886,015;   -5,818;18121,771; 0,26306
 363,97; 9615,498;   -4,909;17573,764; 0,26179
 364,56; 9303,888;   -5,364;16989,371; 0,26140
 365,15; 9152,028;   -5,727;16700,975; 0,26110
 365,74; 9308,285;   -4,667;17004,789; 0,26160
 366,33; 9616,655;   -5,000;17552,646; 0,26122
 366,92; 9826,700;   -6,667;17882,188; 0,25988
 367,51; 9950,631;   -2,727;18059,859; 0,25881
 368,11; 9905,227;   -4,909;17922,223; 0,25743
 368,70; 9847,100;   -6,424;17738,859; 0,25549
 369,29; 9885,632;   -4,182;17714,447; 0,25324
 369,88; 9762,897;   -5,879;17444,676; 0,25197
 370,47; 9632,776;   -4,667;17180,342; 0,25119
 371,06; 9568,153;   -6,394;17037,754; 0,25046
 371,65; 9565,290;   -5,515;16980,760; 0,24915
 372,24; 9483,035;   -4,121;16845,408; 0,24945
 372,83; 9407,027;   -5,424;16601,334; 0,24658
 373,42; 9331,154;   -4,667;16385,398; 0,24443
 374,01; 9253,742;   -5,636;16204,558; 0,24321
 374,60; 9235,837;   -4,879;16159,646; 0,24286
 375,19; 9325,557;   -4,061;16215,934; 0,24019
 375,78; 9367,668;   -4,818;16210,541; 0,23807
 376,37; 9407,529;   -5,606;16226,437; 0,23664
 376,96; 9603,091;   -5,273;16452,744; 0,23373
 377,55; 9811,372;   -4,970;16712,555; 0,23122
 378,14;10052,918;   -4,939;17059,555; 0,22959
 378,73;10312,602;   -6,152;17505,809; 0,22971
 379,32;10564,374;   -5,848;17884,682; 0,22854
 379,91;10388,495;   -4,818;17499,531; 0,22639
 380,50;10341,169;   -6,879;17313,273; 0,22369
 381,09;10288,885;   -4,939;17124,809; 0,22117
 381,68;10175,728;   -5,515;16812,229; 0,21797
 382,27;10278,818;   -6,485;16865,744; 0,21496
 382,86;10353,380;   -5,030;16813,447; 0,21049
 383,45;10197,691;   -5,182;16486,980; 0,20856
 384,04;10031,843;   -5,182;16178,559; 0,20747
 384,63; 9749,115;   -4,970;15660,378; 0,20575
 385,22; 9581,945;   -6,152;15369,324; 0,20510
 385,81; 9736,190;   -4,394;15529,525; 0,20270
 386,40;10066,951;   -5,909;15951,268; 0,19980
 386,99;10466,051;   -5,545;16435,139; 0,19591
 387,58;10749,665;   -4,152;16779,189; 0,19332
 388,17;11020,130;   -7,091;17100,613; 0,19073
 388,76;11127,162;   -4,485;17161,047; 0,18810
 389,35;10862,824;   -4,727;16679,961; 0,18619
 389,94;10782,665;   -7,000;16461,129; 0,18364
 390,53;10920,862;   -4,818;16527,100; 0,17987
 391,12;11107,789;   -4,455;16655,902; 0,17588
 391,71;11368,162;   -5,242;16988,684; 0,17440
 392,30;11880,435;   -4,485;17611,320; 0,17091
 392,89;12324,160;   -5,970;18105,008; 0,16697
 393,48;11917,229;   -4,848;17354,029; 0,16317
 394,07;11354,843;   -5,970;16420,346; 0,16013
 394,66;11214,582;   -5,515;16158,932; 0,15856
 395,25;11192,768;   -4,879;15997,500; 0,15506
 395,84;11127,241;   -5,394;15827,251; 0,15296
 396,43;11351,447;   -4,364;16012,033; 0,14935
 397,01;11761,401;   -5,576;16424,240; 0,14497
 397,60;12395,123;   -5,152;17184,297; 0,14183
 398,19;13078,326;   -4,061;18028,975; 0,13938
 398,78;13220,115;   -5,879;18131,316; 0,13714
 399,37;12559,759;   -5,667;17148,693; 0,13520
 399,96;12115,565;   -4,818;16437,654; 0,13245
 400,55;11901,910;   -6,061;16053,570; 0,12990
 401,14;11944,159;   -4,545;15977,273; 0,12631
 401,73;11731,678;   -4,970;15539,813; 0,12204
 402,32;11607,410;   -5,848;15318,416; 0,12043
 402,91;11617,362;   -4,727;15200,372; 0,11671
 403,49;11563,508;   -5,697;15107,580; 0,11606
 404,08;11606,112;   -4,970;15039,146; 0,11249
 404,67;11710,961;   -5,121;15059,177; 0,10917
 405,26;11803,750;   -5,606;15136,062; 0,10795
 405,85;11641,408;   -3,636;14817,405; 0,10474
 406,44;11144,821;   -6,455;14170,699; 0,10426
 407,03;10966,880;   -3,212;13860,874; 0,10168
 407,62;11014,742;   -4,818;13849,588; 0,09942
 408,20;11403,749;   -6,303;14254,025; 0,09684
 408,79;11723,303;   -5,091;14586,986; 0,09488
 409,38;11560,739;   -6,515;14341,995; 0,09358
 409,97;11407,026;   -3,879;14093,627; 0,09182
 410,56;10945,645;   -4,970;13436,220; 0,08900
 411,15;10655,401;   -5,545;13034,817; 0,08749
 411,73;10427,810;   -5,303;12675,844; 0,08474
 412,32;10346,270;   -6,121;12480,514; 0,08140
 412,91;10308,097;   -6,152;12365,505; 0,07899
 413,50;10213,462;   -3,697;12238,727; 0,07854
 414,09; 9997,579;   -5,485;11955,276; 0,07763
 414,68; 9809,661;   -4,788;11767,708; 0,07900
 415,26; 9871,596;   -5,727;11797,319; 0,07735
 415,85;10132,167;   -4,788;12031,686; 0,07459
 416,44;10564,398;   -4,455;12419,314; 0,07023
 417,03;10704,312;   -5,818;12512,553; 0,06775
 417,62;10903,992;   -4,879;12710,577; 0,06655
 418,21;11048,354;   -4,939;12844,743; 0,06540
 418,79;11338,640;   -5,909;13114,123; 0,06315
 419,38;11566,296;   -4,606;13328,973; 0,06158
 419,97;11818,429;   -4,970;13587,160; 0,06055
 420,56;12419,235;   -6,091;14257,639; 0,05993
 421,15;13248,018;   -3,758;15143,362; 0,05806
 421,73;13835,115;   -5,667;15750,949; 0,05630
 422,32;13198,142;   -5,121;14972,319; 0,05476
 422,91;12376,486;   -5,394;13976,903; 0,05279
 423,50;11892,432;   -6,970;13437,395; 0,05302
 424,08;11760,450;   -3,939;13281,537; 0,05281
 424,67;11976,541;   -5,788;13519,688; 0,05261
 425,26;12041,649;   -4,727;13500,306; 0,04964
 425,85;11552,896;   -4,545;12924,878; 0,04872
 426,43;11285,073;   -5,061;12634,305; 0,04903
 427,02;11423,722;   -4,606;12760,437; 0,04804
 427,61;11671,783;   -6,182;13040,170; 0,04812
 428,20;11855,242;   -6,182;13228,440; 0,04757
 428,79;12344,048;   -4,212;13751,210; 0,04687
 429,37;13617,771;   -5,788;15105,853; 0,04502
 429,96;14691,222;   -4,818;16193,287; 0,04226
 430,55;14415,160;   -5,848;15858,522; 0,04143
 431,13;13208,173;   -5,182;14524,723; 0,04125
 431,72;11716,208;   -4,030;12861,322; 0,04049
 432,31;11007,109;   -6,061;12141,188; 0,04257
 432,90;11174,972;   -5,333;12315,602; 0,04219
 433,48;12639,438;   -5,788;13847,555; 0,03963
 434,07;12778,523;   -6,121;13923,673; 0,03726
 434,66;11589,835;   -4,485;12658,483; 0,03829
 435,25;11478,592;   -5,818;12548,748; 0,03869
 435,83;11376,637;   -5,636;12428,772; 0,03840
 436,42;11746,339;   -5,273;12847,291; 0,03889
 437,01;11330,535;   -5,667;12371,472; 0,03815
 437,59;11004,734;   -5,485;12006,181; 0,03781
 438,18;11228,474;   -5,091;12227,947; 0,03702
 438,77;11397,698;   -5,939;12362,024; 0,03525
 439,35;11194,650;   -4,000;12093,466; 0,03353
 439,94;10993,172;   -5,485;11861,045; 0,03298
 440,53;11280,095;   -5,333;12206,495; 0,03426
 441,11;12635,170;   -4,939;13665,067; 0,03402
 441,70;12914,451;   -5,697;13934,633; 0,03301
 442,29;12398,834;   -5,182;13357,809; 0,03234
 442,87;12421,539;   -6,212;13399,979; 0,03291
 443,46;12818,438;   -6,818;13772,041; 0,03115
 444,05;12429,260;   -5,576;13304,632; 0,02954
 444,63;12082,779;   -5,667;12916,448; 0,02896
 445,22;11852,115;   -5,545;12658,921; 0,02859
 445,81;11585,347;   -5,697;12403,852; 0,02963
 446,39;11838,674;   -5,394;12720,424; 0,03118
 446,98;11441,439;   -4,515;12251,835; 0,02971
 447,57;11075,783;   -6,121;11837,534; 0,02887
 448,15;10800,892;   -4,727;11558,184; 0,02942
 448,74;10985,106;   -5,606;11741,473; 0,02890
 449,33;11071,650;   -6,394;11825,070; 0,02858
 449,91;10996,200;   -4,091;11708,974; 0,02727
 450,50;10827,922;   -6,394;11548,819; 0,02798
 451,08;10519,934;   -4,727;11201,131; 0,02724
 451,67;10543,557;   -4,909;11290,479; 0,02971
 452,26;10360,061;   -6,242;11084,650; 0,02934
 452,84; 9967,294;   -4,485;10674,388; 0,02975
 453,43; 9549,164;   -5,091;10184,670; 0,02797
 454,02; 9420,678;   -5,152;10056,752; 0,02836
 454,60; 9430,647;   -5,333;10055,630; 0,02785
 455,19; 9893,323;   -5,758;10571,682; 0,02879
 455,77; 9631,291;   -4,333;10258,673; 0,02739
 456,36; 9214,128;   -5,303; 9837,481; 0,02841
 456,95; 9431,867;   -6,091;10056,735; 0,02784
 457,53; 9855,529;   -4,182;10487,891; 0,02700
 458,12; 9929,182;   -5,485;10517,350; 0,02498
 458,70; 9939,568;   -4,939;10509,094; 0,02419
 459,29;10025,805;   -6,091;10617,785; 0,02490
 459,87;10188,795;   -5,636;10767,331; 0,02397
 460,46; 9956,248;   -4,061;10556,504; 0,02541
 461,05;10019,294;   -5,758;10609,357; 0,02484
 461,63; 9134,429;   -5,818; 9624,981; 0,02270
 462,22; 8400,205;   -4,667; 8860,002; 0,02313
 462,80; 8422,104;   -6,333; 8875,638; 0,02276
 463,39; 8940,244;   -4,788; 9448,114; 0,02398
 463,97; 9074,037;   -5,030; 9562,907; 0,02278
 464,56; 9554,538;   -5,061;10088,184; 0,02359
 465,14;10135,964;   -4,515;10695,433; 0,02332
 465,73;10572,380;   -6,152;11186,657; 0,02451
 466,31; 9506,391;   -7,000;10015,117; 0,02262
 466,90; 8453,731;   -5,212; 8884,829; 0,02159
 467,49; 8027,819;   -6,242; 8484,448; 0,02401
 468,07; 7957,475;   -4,576; 8435,620; 0,02533
 468,66; 7602,514;   -5,091; 8036,369; 0,02409
 469,24; 7343,306;   -5,152; 7760,184; 0,02396
 469,83; 7089,106;   -3,606; 7464,019; 0,02237
 470,41; 6995,125;   -5,758; 7377,859; 0,02312
 471,00; 6861,464;   -5,758; 7277,075; 0,02552
 471,58; 6918,785;   -5,000; 7350,543; 0,02627
 472,17; 7083,365;   -6,606; 7518,447; 0,02587
 472,75; 7271,198;   -5,000; 7708,415; 0,02534
 473,34; 7541,128;   -5,424; 7992,360; 0,02522
 473,92; 7532,669;   -4,848; 7980,396; 0,02506
 474,51; 7594,145;   -5,545; 8061,034; 0,02589
 475,09; 8165,027;   -6,455; 8628,452; 0,02396
 475,68; 7835,086;   -3,970; 8244,654; 0,02212
 476,26; 7422,848;   -5,727; 7853,106; 0,02445
 476,85; 7182,293;   -5,758; 7578,681; 0,02331
 477,43; 7084,408;   -5,212; 7490,796; 0,02421
 478,01; 7573,114;   -6,000; 7967,517; 0,02203
 478,60; 7337,850;   -4,152; 7698,961; 0,02085
 479,18; 7337,680;   -5,545; 7724,396; 0,02229
 479,77; 7694,917;   -6,364; 8115,915; 0,02311
 480,35; 7992,026;   -4,424; 8384,506; 0,02081
 480,94; 7651,564;   -5,758; 8047,734; 0,02191
 481,52; 8110,792;   -5,636; 8505,374; 0,02062
 482,11; 7830,858;   -4,606; 8216,500; 0,02087
 482,69; 7200,408;   -5,909; 7561,709; 0,02125
 483,27; 7242,278;   -4,515; 7570,262; 0,01922
 483,86; 7542,579;   -4,152; 7867,518; 0,01831
 484,44; 8452,185;   -4,061; 8819,759; 0,01848
 485,03;12104,306;   -5,000;12751,516; 0,02261
 485,61;27436,383;   -6,697;28687,580; 0,01936
 486,20;24544,947;   -5,061;24990,580; 0,00781
 486,78;11698,297;   -5,000;12128,614; 0,01568
 487,36; 8794,324;   -5,273; 9202,325; 0,01968
 487,95; 7169,802;   -4,576; 7517,190; 0,02054
 488,53; 6774,129;   -5,303; 7118,489; 0,02152
 489,12; 6645,616;   -4,970; 6983,590; 0,02153
 489,70; 6308,743;   -5,121; 6635,834; 0,02194
 490,28; 6117,640;   -6,242; 6454,733; 0,02327
 490,87; 6289,197;   -4,485; 6650,469; 0,02424
 491,45; 6312,583;   -5,091; 6636,780; 0,02173
 492,04; 6301,646;   -3,970; 6657,160; 0,02382
 492,62; 6321,457;   -4,909; 6670,630; 0,02333
 493,20; 6381,468;   -5,909; 6727,368; 0,02290
 493,79; 6485,602;   -4,636; 6804,106; 0,02081
 494,37; 6589,390;   -4,515; 6932,590; 0,02204
 494,95; 6255,140;   -5,939; 6579,755; 0,02195
 495,54; 6315,660;   -3,606; 6652,330; 0,02254
 496,12; 7259,153;   -6,000; 7621,196; 0,02112
 496,71; 6900,427;   -4,364; 7225,929; 0,02001
 497,29; 5982,966;   -5,788; 6280,190; 0,02104
 497,87; 5740,221;   -4,727; 6046,198; 0,02254
 498,46; 5888,983;   -4,485; 6214,221; 0,02333
 499,04; 6179,832;   -5,485; 6525,220; 0,02360
 499,62; 6536,225;   -4,879; 6903,389; 0,02372
 500,21; 6183,859;   -4,636; 6527,794; 0,02349
 500,79; 6264,755;   -6,667; 6624,443; 0,02422
 501,37; 6636,827;   -4,788; 7008,106; 0,02362
 501,96; 6580,021;   -5,818; 6946,235; 0,02350
 502,54; 6615,000;   -5,970; 6976,991; 0,02312
 503,12; 6595,994;   -4,182; 6962,553; 0,02347
 503,71; 6405,774;   -5,515; 6748,654; 0,02263
 504,29; 6125,096;   -4,061; 6470,465; 0,02381
 504,87; 6099,422;   -5,485; 6435,936; 0,02330
 505,45; 6026,023;   -5,394; 6346,907; 0,02251
 506,04; 6156,830;   -4,212; 6506,541; 0,02398
 506,62; 6110,456;   -5,818; 6413,725; 0,02102
 507,20; 5615,481;   -4,273; 5904,914; 0,02181
 507,79; 5889,947;   -4,394; 6166,952; 0,01994
 508,37; 5911,506;   -6,515; 6190,467; 0,02000
 508,95; 5608,028;   -4,182; 5883,719; 0,02083
 509,53; 5495,113;   -5,758; 5780,690; 0,02198
 510,12; 5537,642;   -5,455; 5845,132; 0,02345
 510,70; 5408,823;   -4,485; 5718,737; 0,02418
 511,28; 5264,083;   -4,636; 5580,539; 0,02533
 511,87; 5019,203;   -5,152; 5281,529; 0,02210
 512,45; 4989,765;   -4,848; 5267,417; 0,02350
 513,03; 5100,888;   -6,000; 5342,092; 0,02004
 513,61; 4929,792;   -3,667; 5165,246; 0,02025
 514,20; 4846,204;   -5,242; 5116,625; 0,02356
 514,78; 4603,515;   -4,242; 4842,428; 0,02195
 515,36; 4519,992;   -4,909; 4761,324; 0,02257
 515,94; 4767,134;   -5,727; 5010,570; 0,02160
 516,52; 4841,592;   -4,485; 5092,746; 0,02194
 517,11; 4665,427;   -4,939; 4905,965; 0,02181
 517,69; 4445,026;   -5,152; 4694,437; 0,02368
 518,27; 4450,754;   -4,576; 4701,354; 0,02377
 518,85; 4750,553;   -5,636; 4979,663; 0,02043
 519,44; 4645,245;   -4,485; 4869,937; 0,02050
 520,02; 4269,225;   -5,576; 4489,636; 0,02183
 520,60; 4193,453;   -5,545; 4433,973; 0,02419
 521,18; 4353,721;   -4,455; 4592,701; 0,02318
 521,76; 4244,166;   -4,727; 4498,218; 0,02522
 522,35; 4360,077;   -5,697; 4619,808; 0,02510
 522,93; 4503,617;   -4,818; 4741,683; 0,02235
 523,51; 4618,654;   -6,152; 4861,846; 0,02226
 524,09; 4738,353;   -3,788; 4985,036; 0,02202
 524,67; 4627,211;   -4,848; 4866,705; 0,02189
 525,26; 4603,670;   -4,667; 4854,217; 0,02299
 525,84; 4743,200;   -4,727; 5002,999; 0,02314
 526,42; 4817,168;   -5,455; 5073,356; 0,02248
 527,00; 4904,367;   -5,152; 5156,852; 0,02178
 527,58; 4897,289;   -6,121; 5171,476; 0,02363
 528,16; 5170,959;   -5,697; 5457,677; 0,02341
 528,75; 5607,271;   -4,788; 5910,063; 0,02282
 529,33; 5452,432;   -5,394; 5768,247; 0,02443
 529,91; 5316,210;   -4,121; 5610,063; 0,02335
 530,49; 5287,495;   -5,121; 5568,921; 0,02250
 531,07; 5258,587;   -5,152; 5544,900; 0,02300
 531,65; 5320,475;   -4,455; 5583,379; 0,02093
 532,23; 5270,912;   -5,303; 5551,761; 0,02252
 532,82; 5583,957;   -4,576; 5894,028; 0,02345
 533,40; 5767,561;   -3,455; 6074,686; 0,02252
 533,98; 5709,431;   -5,939; 6009,150; 0,02220
 534,56; 5694,188;   -5,333; 5959,361; 0,01975
 535,14; 5579,880;   -5,424; 5866,025; 0,02170
 535,72; 5346,946;   -4,758; 5569,849; 0,01772
 536,30; 5064,016;   -4,788; 5284,052; 0,01845
 536,88; 5021,840;   -6,364; 5255,604; 0,01974
 537,47; 5286,626;   -5,636; 5564,564; 0,02223
 538,05; 5501,337;   -4,667; 5790,950; 0,02226
 538,63; 5558,951;   -5,909; 5842,453; 0,02158
 539,21; 5568,435;   -5,636; 5853,445; 0,02166
 539,79; 5452,700;   -6,303; 5719,156; 0,02070
 540,37; 5495,919;   -4,818; 5753,624; 0,01988
 540,95; 5730,853;   -4,121; 6028,895; 0,02200
 541,53; 5717,544;   -5,970; 5982,741; 0,01967
 542,11; 5709,212;   -4,970; 6000,778; 0,02161
 542,69; 5735,641;   -5,394; 6016,197; 0,02072
 543,27; 5823,670;   -5,303; 6068,401; 0,01786
 543,85; 5985,903;   -5,061; 6253,441; 0,01897
 544,44; 6014,473;   -5,515; 6258,250; 0,01724
 545,02; 5980,756;   -3,758; 6217,257; 0,01683
 545,60; 5690,097;   -5,000; 5953,966; 0,01967
 546,18; 5714,696;   -4,273; 5983,708; 0,01996
 546,76; 5974,969;   -5,576; 6271,801; 0,02104
 547,34; 6446,737;   -5,515; 6745,473; 0,01966
 547,92; 6791,387;   -5,121; 7049,979; 0,01622
 548,50; 6415,752;   -5,182; 6688,533; 0,01807
 549,08; 6113,249;   -5,242; 6391,517; 0,01932
 549,66; 6225,721;   -4,485; 6517,558; 0,01988
 550,24; 6386,157;   -5,455; 6685,144; 0,01985
 550,82; 6442,040;   -4,697; 6755,775; 0,02064
 551,40; 6828,387;   -4,455; 7197,406; 0,02284
 551,98; 7431,767;   -6,152; 7815,806; 0,02186
 552,56; 7402,868;   -5,242; 7760,535; 0,02048
 553,14; 7447,900;   -5,848; 7792,908; 0,01965
 553,72; 7560,043;   -5,303; 7871,370; 0,01751
 554,30; 7550,744;   -3,455; 7859,031; 0,01737
 554,88; 7851,813;   -5,939; 8189,663; 0,01828
 555,46; 8176,492;   -4,212; 8552,458; 0,01951
 556,04; 8219,014;   -4,333; 8614,532; 0,02040
 556,62; 8059,540;   -6,030; 8446,080; 0,02033
 557,20; 8162,228;   -5,303; 8521,903; 0,01872
 557,78; 8211,541;   -4,061; 8631,026; 0,02163
 558,36; 8123,388;   -4,636; 8539,806; 0,02170
 558,94; 8231,397;   -3,818; 8629,684; 0,02051
 559,52; 8494,316;   -6,424; 8942,527; 0,02232
 560,10; 8918,794;   -4,394; 9351,815; 0,02058
 560,68; 9093,596;   -4,485; 9526,265; 0,02018
 561,26; 9038,258;   -5,697; 9461,938; 0,01988
 561,84; 8906,255;   -4,364; 9321,467; 0,01978
 562,42; 8957,641;   -5,758; 9410,110; 0,02139
 563,00; 9221,686;   -4,182; 9668,105; 0,02052
 563,58; 9504,617;   -4,000; 9915,580; 0,01838
 564,15; 9675,531;   -5,515;10085,516; 0,01801
 564,73; 9797,306;   -4,182;10185,103; 0,01685
 565,31; 9893,286;   -5,545;10257,649; 0,01570
 565,89;10115,562;   -5,030;10494,672; 0,01597
 566,47;10292,507;   -4,242;10674,096; 0,01580
 567,05;10836,393;   -6,152;11213,746; 0,01486
 567,63;11052,127;   -4,091;11486,184; 0,01672
 568,21;11531,072;   -4,182;11896,856; 0,01356
 568,79;12140,729;   -5,242;12506,308; 0,01288
 569,37;13039,736;   -5,485;13442,838; 0,01322
 569,95;13541,381;   -6,030;13958,951; 0,01318
 570,53;13844,591;   -4,606;14329,724; 0,01495
 571,10;14168,431;   -5,212;14724,247; 0,01671
 571,68;14421,403;   -6,455;14900,506; 0,01419
 572,26;13453,244;   -4,606;13986,766; 0,01688
 572,84;14064,976;   -5,636;14644,430; 0,01753
 573,42;15244,133;   -5,182;15695,464; 0,01267
 574,00;15945,333;   -5,455;16424,994; 0,01287
 574,58;15878,322;   -6,242;16348,328; 0,01266
 575,16;15089,633;   -4,818;15421,337; 0,00944
 575,73;14437,699;   -5,545;14916,434; 0,01416
 576,31;15681,180;   -5,606;16167,954; 0,01327
 576,89;16384,754;   -5,000;16857,217; 0,01234
 577,47;17950,957;   -5,485;18604,711; 0,01553
 578,05;17312,926;   -4,879;18007,430; 0,01708
 578,63;15392,845;   -5,212;15988,402; 0,01648
 579,21;15057,337;   -5,333;15753,596; 0,01962
 579,78;15642,848;   -3,758;16300,783; 0,01789
 580,36;16193,067;   -6,091;16786,313; 0,01562
 580,94;18043,654;   -5,121;18796,049; 0,01774
 581,52;19133,570;   -5,667;19851,605; 0,01599
 582,10;17710,867;   -5,970;18280,510; 0,01374
 582,67;15963,994;   -4,030;16547,387; 0,01558
 583,25;15099,037;   -5,697;15692,981; 0,01675
 583,83;15398,267;   -6,061;15899,872; 0,01392
 584,41;16157,352;   -4,394;16775,141; 0,01629
 584,99;17049,254;   -5,455;17609,703; 0,01404
 585,57;16578,295;   -4,364;17032,947; 0,01175
 586,14;15810,297;   -4,424;16382,419; 0,01543
 586,72;16164,693;   -5,121;16748,680; 0,01541
 587,30;16469,844;   -3,636;16955,303; 0,01261
 587,88;16029,864;   -5,242;16590,160; 0,01492
 588,45;15892,176;   -5,758;16430,662; 0,01447
 589,03;15763,372;   -4,909;16267,960; 0,01368
 589,61;15903,432;   -5,970;16469,350; 0,01518
 590,19;15912,374;   -4,970;16514,789; 0,01613
 590,77;15906,930;   -4,970;16400,396; 0,01326
 591,34;16013,504;   -5,455;16571,963; 0,01488
 591,92;16187,129;   -4,242;16830,289; 0,01692
 592,50;16857,590;   -4,939;17390,303; 0,01351
 593,08;16908,795;   -4,515;17551,139; 0,01619
 593,65;16708,541;   -3,848;17454,371; 0,01896
 594,23;16656,314;   -5,606;17362,436; 0,01803
 594,81;16922,070;   -3,879;17700,297; 0,01952
 595,39;16937,908;   -4,758;17842,512; 0,02259
 595,96;16989,104;   -5,545;17860,293; 0,02171
 596,54;17121,010;   -4,515;17981,330; 0,02129
 597,12;17281,805;   -5,061;18201,018; 0,02250
 597,69;17365,355;   -3,545;18149,619; 0,01918
 598,27;17608,080;   -5,515;18332,211; 0,01750
 598,85;17799,313;   -5,394;18554,064; 0,01803
 599,43;17775,158;   -4,455;18360,705; 0,01407
 600,00;17914,422;   -5,758;18321,473; 0,00975
 600,58;17834,539;   -5,000;18269,332; 0,01046
 601,16;17843,100;   -4,576;18273,998; 0,01036
 601,73;17883,822;   -7,061;18285,307; 0,00964
 602,31;17911,617;   -5,515;18438,803; 0,01259
 602,89;18009,947;   -6,121;18628,266; 0,01466
 603,46;18062,688;   -5,879;18674,643; 0,01447
 604,04;17957,424;   -4,970;18740,787; 0,01854
 604,62;17916,209;   -5,758;18820,254; 0,02137
 605,19;18092,824;   -3,727;18858,467; 0,01800
 605,77;18262,686;   -5,030;18922,387; 0,01541
 606,35;18209,354;   -4,758;18936,979; 0,01701
 606,92;18337,252;   -4,545;19000,486; 0,01543
 607,50;18372,863;   -5,970;19076,127; 0,01631
 608,08;18300,535;   -4,970;19192,008; 0,02065
 608,65;18410,957;   -5,939;19269,902; 0,01980
 609,23;18506,303;   -5,758;19235,434; 0,01678
 609,81;18642,869;   -4,030;19397,252; 0,01722
 610,38;18580,084;   -5,273;19314,330; 0,01683
 610,96;18674,916;   -4,818;19250,225; 0,01317
 611,54;18744,070;   -4,485;19323,098; 0,01321
 612,11;18686,057;   -5,788;19401,492; 0,01631
 612,69;18773,619;   -3,667;19467,867; 0,01577
 613,26;18761,545;   -5,727;19436,730; 0,01535
 613,84;18683,479;   -5,061;19484,270; 0,01822
 614,42;18774,598;   -4,727;19546,770; 0,01750
 614,99;18936,275;   -6,061;19489,080; 0,01249
 615,57;18908,893;   -4,606;19456,301; 0,01239
 616,14;18854,266;   -4,909;19463,746; 0,01381
 616,72;18928,537;   -6,152;19460,467; 0,01203
 617,30;19037,537;   -4,152;19553,648; 0,01161
 617,87;18946,244;   -6,121;19619,625; 0,01516
 618,45;18856,480;   -4,879;19455,895; 0,01359
 619,02;18799,033;   -4,333;19358,020; 0,01272
 619,60;18821,766;   -5,242;19490,967; 0,01517
 620,17;18743,301;   -5,061;19478,631; 0,01671
 620,75;18613,051;   -5,515;19216,953; 0,01386
 621,33;18684,334;   -6,242;19337,406; 0,01492
 621,90;18752,266;   -4,091;19511,727; 0,01724
 622,48;18899,469;   -6,424;19511,424; 0,01383
 623,05;19093,916;   -4,212;19571,775; 0,01073
 623,63;19069,232;   -5,545;19633,559; 0,01266
 624,20;19207,484;   -5,303;19763,428; 0,01239
 624,78;19343,979;   -4,515;19732,754; 0,00864
 625,35;19316,303;   -6,242;19877,125; 0,01243
 625,93;19311,217;   -6,152;20067,949; 0,01669
 626,50;19439,023;   -5,121;20141,879; 0,01542
 627,08;19569,348;   -4,879;20242,971; 0,01469
 627,66;19533,283;   -4,212;20373,377; 0,01828
 628,23;19595,697;   -5,121;20484,793; 0,01927
 628,81;19833,254;   -4,242;20576,984; 0,01598
 629,38;19909,254;   -4,394;20680,590; 0,01650
 629,96;19955,096;   -5,636;20797,857; 0,01796
 630,53;20128,621;   -3,848;20782,160; 0,01387
 631,11;20224,799;   -6,152;20765,320; 0,01145
 631,68;20203,199;   -6,242;20943,930; 0,01563
 632,26;20256,242;   -4,333;21020,730; 0,01609
 632,83;20464,752;   -4,727;21156,941; 0,01444
 633,40;20553,900;   -4,030;21367,379; 0,01685
 633,98;20658,334;   -4,788;21582,703; 0,01901
 634,55;20815,076;   -5,545;21686,615; 0,01781
 635,13;21042,949;   -2,970;21689,611; 0,01314
 635,70;21123,680;   -6,394;21856,994; 0,01482
 636,28;21237,438;   -4,788;21974,457; 0,01481
 636,85;21379,920;   -3,879;21929,592; 0,01102
 637,43;21396,141;   -5,182;21937,402; 0,01085
 638,00;21320,484;   -4,152;22127,703; 0,01614
 638,58;21354,494;   -5,727;22239,189; 0,01763
 639,15;21409,490;   -5,030;22244,012; 0,01660
 639,73;21398,934;   -3,697;22423,365; 0,02031
 640,30;21375,918;   -4,576;22581,023; 0,02381
 640,87;21518,512;   -3,394;22524,439; 0,01984
 641,45;21620,256;   -5,333;22490,006; 0,01712
 642,02;21557,273;   -4,182;22491,727; 0,01843
 642,60;21537,291;   -4,909;22446,264; 0,01795
 643,17;21658,764;   -5,212;22375,527; 0,01414
 643,74;21675,811;   -4,333;22346,975; 0,01324
 644,32;21532,920;   -5,182;22491,391; 0,01891
 644,89;21587,906;   -6,333;22516,836; 0,01829
 645,47;21641,350;   -4,091;22475,344; 0,01642
 646,04;21577,549;   -5,061;22569,215; 0,01951
 646,61;21566,656;   -5,455;22743,934; 0,02308
 647,19;21730,129;   -3,879;22724,957; 0,01944
 647,76;21875,086;   -5,970;22693,797; 0,01595
 648,34;21875,619;   -5,091;22840,152; 0,01873
 648,91;21938,879;   -5,091;22889,629; 0,01842
 649,48;22027,744;   -5,970;22854,439; 0,01600
 650,06;22005,641;   -4,091;22828,674; 0,01594
 650,63;21955,689;   -4,485;22976,695; 0,01974
 651,20;22025,160;   -3,667;23076,535; 0,02025
 651,78;22235,480;   -4,848;23084,527; 0,01627
 652,35;22342,529;   -6,000;23176,762; 0,01592
 652,92;22434,576;   -3,727;23402,270; 0,01834
 653,50;22620,564;   -5,636;23551,352; 0,01751
 654,07;22850,582;   -5,212;23569,314; 0,01345
 654,64;23316,387;   -4,515;24251,094; 0,01707
 655,22;28041,980;   -6,727;29578,723; 0,02317
 655,79;38995,453;   -3,818;40383,926; 0,01519
 656,36;28715,137;   -5,394;29571,584; 0,01276
 656,94;23880,215;   -6,182;25015,305; 0,02016
 657,51;23323,898;   -4,212;24562,418; 0,02247
 658,08;23432,705;   -5,818;24463,834; 0,01870
 658,66;23547,055;   -3,606;24321,340; 0,01405
 659,23;23525,951;   -5,030;24433,363; 0,01643
 659,80;23626,211;   -6,182;24625,445; 0,01799
 660,38;23814,047;   -4,273;24689,406; 0,01567
 660,95;23963,701;   -4,909;24794,127; 0,01479
 661,52;23963,445;   -4,667;24975,846; 0,01797
 662,09;23957,645;   -3,788;25144,475; 0,02100
 662,67;24062,178;   -5,545;25120,344; 0,01869
 663,24;24057,377;   -5,030;25086,033; 0,01818
 663,81;23974,818;   -4,576;25171,662; 0,02115
 664,39;23954,625;   -4,242;25218,836; 0,02233
 664,96;24103,793;   -5,212;25157,707; 0,01858
 665,53;24182,174;   -5,182;25066,092; 0,01559
 666,10;24153,436;   -4,273;25097,750; 0,01665
 666,68;24204,604;   -4,394;25084,924; 0,01551
 667,25;24414,287;   -5,970;24958,189; 0,00957
 667,82;24330,336;   -3,394;24775,514; 0,00787
 668,39;24222,504;   -5,273;24879,809; 0,01163
 668,96;24180,371;   -5,515;24955,346; 0,01370
 669,54;24262,268;   -4,697;24866,066; 0,01067
 670,11;24212,770;   -6,152;24798,998; 0,01039
 670,68;24017,969;   -5,152;24925,141; 0,01610
 671,25;23994,834;   -5,242;25054,133; 0,01876
 671,83;24144,004;   -4,697;24982,457; 0,01482
 672,40;24187,445;   -4,485;24895,328; 0,01253
 672,97;24157,555;   -5,909;25004,775; 0,01497
 673,54;24257,965;   -4,394;25227,797; 0,01702
 674,11;24412,438;   -3,758;25217,334; 0,01409
 674,69;24372,486;   -5,303;25238,387; 0,01516
 675,26;24252,564;   -4,303;25379,834; 0,01973
 675,83;24150,643;   -5,091;25430,432; 0,02242
 676,40;24226,205;   -4,121;25297,182; 0,01878
 676,97;24326,889;   -4,909;25203,082; 0,01536
 677,54;24377,088;   -5,000;25344,014; 0,01689
 678,12;24446,773;   -3,606;25454,461; 0,01754
 678,69;24651,912;   -5,182;25332,391; 0,01182
 679,26;24778,535;   -4,697;25114,746; 0,00585
 679,83;24692,855;   -3,636;25089,375; 0,00692
 680,40;24612,086;   -6,000;25176,852; 0,00985
 680,97;24697,225;   -4,970;25187,238; 0,00853
 681,55;24693,938;   -5,485;25102,928; 0,00713
 682,12;24592,684;   -5,697;25183,162; 0,01030
 682,69;24535,246;   -4,091;25321,760; 0,01370
 683,26;24647,111;   -4,970;25340,357; 0,01204
 683,83;24751,008;   -4,727;25288,742; 0,00933
 684,40;24736,480;   -4,727;25423,705; 0,01190
 684,97;24641,527;   -5,758;25676,545; 0,01786
 685,54;24749,789;   -4,848;25810,689; 0,01822
 686,12;24971,412;   -5,273;25840,498; 0,01485
 686,69;25047,975;   -4,606;25916,430; 0,01480
 687,26;25024,205;   -4,636;26165,301; 0,01936
 687,83;25137,313;   -5,727;26219,688; 0,01830
 688,40;25419,027;   -4,970;26179,225; 0,01280
 688,97;25501,953;   -4,879;26232,943; 0,01227
 689,54;25464,881;   -5,212;26407,541; 0,01578
 690,11;25455,959;   -3,606;26605,807; 0,01918
 690,68;25669,492;   -6,303;26696,586; 0,01703
 691,25;25717,570;   -4,091;26720,275; 0,01661
 691,82;25618,891;   -4,727;26767,176; 0,01904
 692,40;25659,453;   -5,576;26859,805; 0,01985
 692,97;25857,895;   -3,606;26773,734; 0,01511
 693,54;25962,428;   -5,121;26485,969; 0,00867
 694,11;25886,414;   -5,394;26385,416; 0,00829
 694,68;25757,553;   -4,697;26370,863; 0,01022
 695,25;25834,057;   -5,667;26398,490; 0,00938
 695,82;25937,467;   -3,515;26294,059; 0,00593
 696,39;25907,758;   -4,788;26196,535; 0,00481
 696,96;25753,988;   -5,485;26397,193; 0,01071
 697,53;25633,793;   -4,303;26508,459; 0,01457
 698,10;25655,508;   -5,636;26399,359; 0,01241
 698,67;25653,525;   -3,818;26253,686; 0,01004
 699,24;25477,270;   -5,242;26240,404; 0,01282
 699,81;25355,379;   -6,000;26321,760; 0,01624
 700,38;25435,365;   -3,758;26244,994; 0,01361
 700,95;25608,504;   -5,697;26054,713; 0,00750
 701,52;25505,369;   -5,485;26031,676; 0,00887
 702,09;25340,902;   -5,152;26133,576; 0,01337
 702,66;25338,586;   -6,061;26194,508; 0,01442
 703,23;25416,119;   -4,030;26073,074; 0,01108
 703,80;25418,834;   -5,303;26001,188; 0,00984
 704,37;25289,246;   -5,515;26091,604; 0,01356
 704,94;25181,172;   -3,182;26162,596; 0,01660
 705,51;25394,129;   -5,727;26120,193; 0,01224
 706,08;25607,934;   -3,788;26024,004; 0,00700
 706,65;25631,012;   -5,273;26031,936; 0,00674
 707,22;25532,334;   -5,303;26056,715; 0,00883
 707,79;25451,502;   -4,212;25933,859; 0,00815
 708,36;25485,701;   -5,364;25691,912; 0,00350
 708,93;25346,779;   -4,364;25515,873; 0,00289
 709,50;25114,373;   -5,091;25589,684; 0,00814
 710,06;24992,027;   -6,152;25698,068; 0,01210
 710,63;24965,771;   -4,727;25666,121; 0,01201
 711,20;24929,063;   -5,485;25521,658; 0,01020
 711,77;24778,656;   -4,606;25524,682; 0,01288
 712,34;24698,158;   -4,606;25640,400; 0,01626
 712,91;24812,660;   -5,818;25725,090; 0,01568
 713,48;25065,920;   -4,758;25671,293; 0,01036
 714,05;25107,361;   -5,364;25592,951; 0,00832
 714,62;24936,592;   -5,273;25563,217; 0,01078
 715,19;24827,670;   -4,121;25594,270; 0,01320
 715,76;24895,777;   -4,970;25501,928; 0,01045
 716,33;24986,855;   -5,333;25345,980; 0,00620
 716,89;24935,025;   -4,606;25262,123; 0,00566
 717,46;24868,801;   -6,000;25371,207; 0,00868
 718,03;24904,939;   -3,879;25489,381; 0,01007
 718,60;25003,926;   -5,758;25445,068; 0,00759
 719,17;25050,732;   -5,424;25431,455; 0,00655
 719,74;24902,082;   -4,394;25471,689; 0,00982
 720,31;24804,494;   -5,727;25634,803; 0,01430
 720,88;24888,875;   -4,061;25641,006; 0,01293
 721,44;24947,498;   -3,727;25460,393; 0,00884
 722,01;24945,910;   -5,667;25399,111; 0,00782
 722,58;24821,807;   -3,970;25493,225; 0,01159
 723,15;24785,127;   -5,576;25673,580; 0,01529
 723,72;24925,902;   -5,061;25742,027; 0,01399
 724,29;25063,010;   -4,152;25622,170; 0,00958
 724,85;25042,482;   -5,455;25574,465; 0,00913
 725,42;24911,773;   -3,606;25652,912; 0,01273
 725,99;24905,820;   -5,848;25714,297; 0,01387
 726,56;25084,414;   -5,909;25629,381; 0,00933
 727,13;25087,613;   -4,424;25432,797; 0,00593
 727,69;25003,479;   -4,970;25455,455; 0,00778
 728,26;24844,891;   -5,061;25630,053; 0,01351
 728,83;24803,574;   -4,242;25695,137; 0,01533
 729,40;24908,441;   -5,758;25525,674; 0,01063
 729,97;24931,035;   -4,424;25444,635; 0,00885
 730,53;24875,203;   -4,939;25558,809; 0,01177
 731,10;24860,705;   -4,242;25641,559; 0,01343
 731,67;24948,904;   -4,939;25624,248; 0,01160
 732,24;25101,377;   -5,788;25475,693; 0,00643
 732,81;25082,273;   -4,212;25409,383; 0,00563
 733,37;25014,473;   -5,333;25520,072; 0,00869
 733,94;24939,219;   -5,242;25728,518; 0,01353
 734,51;24905,387;   -3,485;25612,934; 0,01216
 735,08;24935,738;   -5,939;25449,229; 0,00885
 735,64;24904,574;   -4,424;25410,100; 0,00873
 736,21;24710,652;   -4,788;25477,607; 0,01327
 736,78;24633,549;   -5,485;25631,113; 0,01724
 737,35;24780,809;   -4,727;25672,471; 0,01535
 737,91;25020,008;   -5,061;25549,250; 0,00909
 738,48;25068,268;   -4,242;25426,756; 0,00617
 739,05;24982,225;   -4,727;25519,264; 0,00924
 739,61;24816,605;   -5,364;25504,498; 0,01187
 740,18;24784,199;   -4,485;25395,945; 0,01059
 740,75;24894,520;   -4,515;25201,906; 0,00533
 741,32;24794,990;   -5,273;25078,535; 0,00494
 741,88;24632,887;   -4,727;25202,770; 0,00993
 742,45;24588,633;   -5,212;25360,883; 0,01343
 743,02;24696,922;   -4,091;25224,389; 0,00918
 743,58;24755,547;   -5,424;25039,291; 0,00495
 744,15;24685,381;   -5,424;24979,797; 0,00515
 744,72;24491,824;   -4,636;25049,213; 0,00977
 745,28;24403,477;   -5,333;24997,176; 0,01044
 745,85;24437,434;   -4,091;24856,742; 0,00739
 746,42;24521,967;   -5,121;24686,584; 0,00291
 746,98;24432,984;   -5,091;24682,424; 0,00441
 747,55;24237,244;   -3,394;24691,598; 0,00806
 748,12;24128,293;   -5,576;24775,195; 0,01149
 748,68;24264,461;   -4,727;24785,277; 0,00922
 749,25;24383,479;   -3,667;24694,725; 0,00551
 749,82;24274,193;   -5,697;24673,746; 0,00709
 750,38;23960,848;   -5,000;24734,314; 0,01379
 750,95;23742,320;   -5,545;24850,186; 0,01980
 751,52;23743,064;   -5,182;24903,783; 0,02072
 752,08;23842,385;   -4,273;24757,139; 0,01635
 752,65;23766,584;   -4,727;24708,404; 0,01687
 753,21;23740,389;   -4,303;24839,334; 0,01965
 753,78;23699,619;   -3,848;24957,055; 0,02245
 754,35;23769,545;   -5,455;24892,137; 0,02004
 754,91;23938,746;   -5,606;24727,523; 0,01408
 755,48;23987,217;   -5,091;24592,090; 0,01081
 756,04;23925,234;   -4,879;24613,719; 0,01232
 756,61;23897,041;   -4,879;24719,832; 0,01470
 757,18;24090,088;   -4,970;24739,461; 0,01155
 757,74;24156,076;   -4,212;24513,604; 0,00638
 758,31;24065,184;   -5,545;24234,596; 0,00305
 758,87;24051,807;   -6,091;24403,164; 0,00630
 759,44;24049,066;   -3,818;24627,701; 0,01032
 760,00;24096,176;   -4,727;24731,904; 0,01131
 760,57;24231,223;   -3,455;24616,988; 0,00686
 761,14;24137,332;   -4,939;24452,070; 0,00563
 761,70;23906,229;   -5,727;24388,881; 0,00868
 762,27;23731,094;   -3,939;24565,297; 0,01500
 762,83;23772,385;   -6,030;24643,805; 0,01563
 763,40;23947,281;   -4,939;24601,795; 0,01171
 763,96;24055,814;   -5,000;24494,150; 0,00784
 764,53;24079,285;   -5,818;24563,689; 0,00865
 765,09;23847,424;   -2,939;24553,832; 0,01268
 765,66;23796,320;   -6,364;24578,854; 0,01405
 766,22;23967,398;   -5,667;24466,332; 0,00895
 766,79;24129,629;   -4,818;24267,293; 0,00247
 767,35;24176,252;   -5,394;24168,648;-0,00014
 767,92;24130,482;   -4,121;24272,520; 0,00255
 768,48;24055,227;   -5,727;24479,754; 0,00760
 769,05;24013,910;   -5,061;24373,504; 0,00645
 769,61;23979,867;   -3,182;24308,768; 0,00592
 770,18;24079,855;   -5,848;24308,578; 0,00410
 770,74;23978,994;   -4,152;24367,328; 0,00698
 771,31;23820,678;   -4,364;24491,350; 0,01206
 771,87;23851,969;   -5,242;24515,492; 0,01191
 772,44;24039,834;   -3,788;24454,879; 0,00743
 773,00;24203,791;   -4,909;24336,205; 0,00237
 773,57;24242,143;   -4,242;24352,984; 0,00198
 774,13;24168,371;   -5,242;24479,248; 0,00555
 774,70;24266,420;   -5,818;24711,361; 0,00789
 775,26;24404,619;   -4,545;24782,990; 0,00668
 775,82;24593,121;   -3,848;24716,801; 0,00218
 776,39;24575,865;   -5,061;24636,549; 0,00107
 776,95;24431,822;   -4,697;24706,967; 0,00486
 777,52;24278,447;   -4,758;24933,383; 0,01156
 778,08;24275,768;   -4,697;25044,525; 0,01354
 778,65;24429,270;   -5,030;24959,941; 0,00933
 779,21;24537,621;   -6,848;24878,660; 0,00599
 779,77;24444,760;   -3,636;24787,076; 0,00604
 780,34;24315,201;   -5,333;24932,189; 0,01088
 780,90;24356,219;   -5,091;25130,576; 0,01359
 781,47;24430,781;   -4,848;25097,205; 0,01169
 782,03;24590,678;   -5,424;24993,197; 0,00705
 782,59;24566,543;   -4,152;24843,219; 0,00486
 783,16;24388,350;   -5,545;24855,090; 0,00823
 783,72;24152,852;   -5,515;24821,293; 0,01185
 784,29;24025,566;   -3,727;24697,951; 0,01199
 784,85;24193,342;   -5,545;24577,338; 0,00684
 785,41;24315,115;   -4,545;24464,299; 0,00266
 785,98;24225,498;   -5,030;24470,141; 0,00436
 786,54;24159,303;   -5,879;24647,738; 0,00869
 787,10;24169,836;   -4,545;24754,549; 0,01038
 787,67;24237,186;   -5,909;24688,691; 0,00801
 788,23;24300,719;   -4,970;24466,805; 0,00296
 788,79;24234,676;   -5,061;24311,705; 0,00138
 789,36;23923,936;   -6,121;24153,455; 0,00415
 789,92;23696,227;   -4,030;24197,477; 0,00909
 790,48;23531,031;   -4,636;24255,771; 0,01317
 791,05;23597,533;   -5,545;24223,400; 0,01137
 791,61;23659,066;   -4,000;24031,361; 0,00678
 792,17;23664,539;   -5,364;23921,445; 0,00469
 792,74;23573,283;   -5,273;23895,406; 0,00589
 793,30;23544,180;   -4,394;23928,369; 0,00703
 793,86;23601,045;   -4,727;24017,178; 0,00759
 794,43;23575,488;   -3,333;23840,291; 0,00485
 794,99;23483,080;   -5,424;23638,980; 0,00287
 795,55;23142,705;   -5,030;23501,791; 0,00669
 796,11;22815,541;   -4,152;23543,510; 0,01364
 796,68;22674,709;   -5,636;23690,047; 0,01902
 797,24;22677,908;   -4,515;23660,281; 0,01841
 797,80;22772,229;   -5,424;23444,395; 0,01263
 798,36;22716,488;   -4,667;23185,932; 0,00888
 798,93;22546,658;   -3,576;23045,076; 0,00949
 799,49;22329,313;   -5,121;22976,311; 0,01240
 800,05;22238,754;   -4,545;22916,877; 0,01304
 800,61;22330,893;   -5,727;22795,930; 0,00895
 801,18;22464,063;   -5,788;22595,680; 0,00254
 801,74;22466,352;   -3,333;22408,096;-0,00113
 802,30;22386,490;   -5,061;22422,148; 0,00069
 802,86;22323,750;   -4,879;22600,383; 0,00535
 803,43;22285,557;   -3,636;22654,525; 0,00713
 803,99;22367,635;   -4,606;22630,609; 0,00508
 804,55;22452,348;   -2,818;22532,783; 0,00155
 805,11;22415,578;   -5,242;22373,350;-0,00082
 805,68;22364,354;   -4,697;22409,463; 0,00087
 806,24;22197,613;   -2,788;22481,213; 0,00551
 806,80;22086,418;   -5,242;22416,629; 0,00644
 807,36;22145,375;   -4,364;22282,773; 0,00269
 807,92;22264,211;   -4,788;22173,037;-0,00178
 808,48;22196,592;   -5,182;22085,635;-0,00218
 809,05;21972,609;   -2,970;22062,840; 0,00178
 809,61;21873,385;   -6,394;22254,801; 0,00751
 810,17;21860,160;   -4,394;22341,338; 0,00945
 810,73;21945,904;   -4,061;22220,998; 0,00541
 811,29;21948,740;   -5,545;22041,988; 0,00184
 811,85;21783,879;   -4,212;21840,770; 0,00113
 812,42;21584,807;   -5,758;21848,457; 0,00527
 812,98;21485,582;   -4,848;21982,057; 0,00992
 813,54;21440,689;   -4,909;22085,018; 0,01286
 814,10;21361,586;   -5,788;21952,586; 0,01185
 814,66;21257,422;   -3,909;21753,184; 0,01001
 815,22;21083,984;   -5,970;21610,629; 0,01071
 815,78;20887,699;   -4,970;21616,076; 0,01488
 816,35;20864,898;   -3,758;21784,129; 0,01872
 816,91;20931,977;   -5,848;21951,211; 0,02064
 817,47;21046,357;   -3,788;21906,021; 0,01738
 818,03;21111,859;   -4,879;21747,922; 0,01289
 818,59;21068,787;   -5,242;21615,461; 0,01112
 819,15;21012,229;   -3,485;21698,695; 0,01396
 819,71;20940,488;   -3,576;21852,354; 0,01851
 820,27;20988,748;   -5,000;21972,891; 0,01990
 820,83;21194,797;   -4,576;21893,215; 0,01408
 821,39;21295,480;   -5,939;21660,602; 0,00738
 821,96;21360,285;   -3,364;21551,139; 0,00386
 822,52;21470,576;   -5,697;21617,707; 0,00297
 823,08;21446,352;   -4,970;21714,334; 0,00539
 823,64;21530,459;   -3,606;21816,418; 0,00573
 824,20;21632,084;   -5,303;21734,621; 0,00205
 824,76;21780,586;   -4,818;21684,402;-0,00192
 825,32;21837,967;   -5,848;21633,121;-0,00409
 825,88;21704,408;   -5,485;21559,627;-0,00291
 826,44;21655,518;   -3,333;21640,984;-0,00029
 827,00;21705,625;   -5,879;21881,248; 0,00350
 827,56;21789,158;   -3,424;21911,422; 0,00243
 828,12;21984,631;   -5,030;21848,201;-0,00270
 828,68;22080,314;   -5,636;21771,193;-0,00612
 829,24;21952,150;   -3,909;21727,852;-0,00446
 829,80;21808,623;   -5,424;21809,541; 0,00002
 830,36;21700,246;   -4,545;21839,078; 0,00277
 830,92;21799,840;   -4,303;21852,434; 0,00105
 831,48;22011,250;   -5,333;21770,031;-0,00478
 832,04;22117,086;   -4,061;21570,297;-0,01087
 832,60;22081,498;   -4,576;21455,986;-0,01248
 833,16;21917,758;   -5,242;21585,432;-0,00663
 833,72;21821,988;   -2,576;21765,605;-0,00112
 834,28;21870,611;   -4,848;21906,355; 0,00071
 834,84;21937,719;   -5,152;21846,498;-0,00181
 835,40;21977,797;   -5,364;21755,582;-0,00441
 835,96;21905,361;   -4,909;21662,088;-0,00485
 836,52;21775,953;   -4,333;21654,172;-0,00244
 837,08;21613,123;   -5,273;21724,709; 0,00224
 837,64;21570,838;   -4,364;21860,609; 0,00579
 838,20;21636,643;   -4,970;21845,875; 0,00418
 838,76;21770,994;   -5,455;21708,715;-0,00124
 839,32;21798,738;   -3,636;21504,889;-0,00589
 839,88;21696,301;   -4,485;21396,518;-0,00604
 840,43;21509,926;   -4,879;21401,752;-0,00219
 840,99;21380,912;   -3,667;21529,563; 0,00301
 841,55;21376,535;   -5,212;21616,371; 0,00484
 842,11;21445,250;   -4,879;21626,484; 0,00365
 842,67;21523,723;   -4,273;21562,658; 0,00078
 843,23;21417,104;   -5,545;21461,500; 0,00090
 843,79;21366,363;   -3,970;21467,582; 0,00205
 844,35;21287,594;   -5,879;21540,211; 0,00512
 844,91;21269,004;   -4,606;21618,385; 0,00707
 845,47;21369,568;   -4,152;21575,648; 0,00417
 846,03;21409,525;   -5,273;21421,883; 0,00025
 846,58;21414,422;   -4,788;21239,420;-0,00356
 847,14;21285,135;   -4,576;21193,322;-0,00188
 847,70;21140,244;   -5,030;21276,313; 0,00279
 848,26;21083,383;   -3,939;21416,426; 0,00681
 848,82;21191,643;   -5,333;21592,813; 0,00814
 849,38;21342,115;   -4,121;21619,652; 0,00561
 849,94;21518,586;   -4,152;21500,371;-0,00037
 850,49;21439,240;   -4,727;21367,879;-0,00145
 851,05;21203,439;   -4,636;21311,719; 0,00221
 851,61;20955,186;   -5,121;21376,771; 0,00865
 852,17;20874,959;   -4,879;21445,461; 0,01171
 852,73;20894,492;   -3,788;21508,271; 0,01257
 853,29;20872,723;   -4,879;21371,748; 0,01026
 853,84;20760,256;   -3,667;21078,133; 0,00660
 854,40;20674,727;   -6,303;20954,307; 0,00583
 854,96;20420,199;   -5,697;20930,996; 0,01073
 855,52;20237,186;   -4,242;20967,352; 0,01539
 856,08;20173,961;   -5,788;21018,949; 0,01781
 856,63;20262,373;   -3,939;20991,699; 0,01535
 857,19;20367,451;   -5,121;20831,268; 0,00978
 857,75;20397,742;   -5,242;20671,320; 0,00578
 858,31;20207,123;   -3,909;20603,705; 0,00844
 858,86;20036,654;   -5,818;20644,424; 0,01297
 859,42;19890,916;   -4,909;20733,387; 0,01801
 859,98;19956,115;   -3,636;20861,045; 0,01926
 860,54;20011,678;   -5,152;20820,006; 0,01719
 861,10;20060,967;   -4,152;20648,029; 0,01252
 861,65;20127,045;   -4,424;20547,111; 0,00897
 862,21;20083,123;   -4,121;20510,135; 0,00914
 862,77;20010,111;   -5,182;20544,186; 0,01144
 863,32;20054,158;   -5,818;20639,330; 0,01249
 863,88;20147,541;   -3,727;20723,262; 0,01223
 864,44;20314,254;   -5,424;20655,254; 0,00723
 865,00;20442,697;   -6,485;20475,457; 0,00070
 865,55;20490,441;   -4,000;20356,723;-0,00284
 866,11;20468,883;   -4,485;20384,836;-0,00179
 866,67;20425,053;   -4,727;20607,705; 0,00387
 867,23;20447,252;   -4,152;20832,031; 0,00810
 867,78;20611,572;   -5,667;21079,842; 0,00975
 868,34;20822,498;   -4,212;21093,895; 0,00562
 868,90;21023,455;   -4,485;21065,037; 0,00086
 869,45;21088,533;   -4,636;21053,969;-0,00071
 870,01;21033,672;   -3,152;21162,203; 0,00265
 870,57;20981,023;   -5,879;21338,953; 0,00734
 871,12;20957,223;   -4,212;21485,762; 0,01081
 871,68;20962,998;   -4,788;21430,027; 0,00957
 872,24;21170,592;   -5,545;21254,596; 0,00172
 872,79;21274,852;   -4,636;21043,891;-0,00474
 873,35;21207,020;   -6,030;20881,881;-0,00671
 873,91;20992,371;   -4,394;20831,783;-0,00333
 874,46;20785,994;   -4,939;20879,744; 0,00195
 875,02;20583,406;   -5,667;20968,373; 0,00805
 875,57;20533,424;   -3,030;20975,213; 0,00924
 876,13;20561,805;   -4,879;20819,357; 0,00540
 876,69;20585,975;   -4,545;20695,197; 0,00230
 877,24;20461,203;   -3,273;20417,461;-0,00093
 877,80;20276,402;   -5,121;20422,363; 0,00311
 878,36;20072,996;   -4,303;20418,658; 0,00741
 878,91;19955,771;   -4,970;20448,043; 0,01058
 879,47;19923,305;   -4,030;20379,217; 0,00982
 880,02;19969,443;   -3,667;20168,967; 0,00432
 880,58;19922,824;   -5,303;19875,898;-0,00102
 881,14;19789,902;   -4,000;19685,344;-0,00230
 881,69;19519,949;   -4,030;19570,762; 0,00113
 882,25;19209,301;   -6,364;19547,844; 0,00758
 882,80;19042,561;   -4,515;19589,168; 0,01229
 883,36;18902,639;   -4,515;19550,889; 0,01464
 883,91;18916,383;   -3,545;19497,820; 0,01315
 884,47;18911,764;   -2,970;19364,689; 0,01028
 885,03;18929,660;   -5,788;19236,955; 0,00699
 885,58;18834,891;   -4,424;19147,674; 0,00715
 886,14;18679,695;   -4,455;19092,029; 0,00948
 886,69;18606,805;   -4,758;19167,779; 0,01290
 887,25;18602,762;   -3,667;19198,469; 0,01369
 887,80;18641,416;   -5,545;19061,643; 0,00968
 888,36;18679,887;   -5,091;18831,209; 0,00350
 888,91;18598,178;   -3,576;18579,990;-0,00042
 889,47;18438,164;   -5,000;18423,314;-0,00035
 890,02;18181,818;   -3,424;18436,822; 0,00605
 890,58;18067,078;   -5,515;18562,662; 0,01175
 891,13;18027,580;   -4,606;18625,563; 0,01417
 891,69;18102,629;   -5,424;18609,797; 0,01200
 892,24;18133,949;   -6,394;18424,820; 0,00691
 892,80;18211,572;   -5,061;18281,902; 0,00167
 893,35;18174,348;   -5,000;18173,076;-0,00003
 893,91;18044,123;   -4,606;18209,037; 0,00395
 894,46;17918,898;   -3,788;18278,818; 0,00864
 895,02;17870,553;   -6,061;18350,566; 0,01151
 895,57;17901,842;   -4,061;18351,619; 0,01077
 896,13;17915,951;   -3,909;18177,885; 0,00630
 896,68;17933,695;   -5,667;17957,330; 0,00057
 897,23;17921,318;   -3,939;17765,686;-0,00379
 897,79;17810,004;   -5,788;17692,859;-0,00287
 898,34;17675,506;   -4,091;17631,459;-0,00108
 898,90;17536,645;   -5,030;17624,693; 0,00217
 899,45;17461,875;   -5,121;17579,594; 0,00292
 900,01;17542,648;   -4,424;17440,768;-0,00253
 900,56;17622,424;   -4,758;17233,941;-0,00968
 901,11;17606,744;   -5,667;17002,479;-0,01516
 901,67;17505,885;   -3,182;16858,713;-0,01636
 902,22;17351,750;   -4,485;16817,887;-0,01357
 902,78;17165,768;   -3,848;16887,908;-0,00709
 903,33;17065,422;   -4,939;16959,689;-0,00270
 903,89;17079,984;   -5,879;17040,590;-0,00100
 904,44;17096,668;   -4,333;17002,582;-0,00240
 904,99;17048,867;   -4,576;16931,998;-0,00299
 905,55;16833,340;   -4,758;16746,293;-0,00225
 906,10;16574,145;   -4,333;16647,164; 0,00191
 906,65;16391,678;   -5,848;16694,338; 0,00794
 907,21;16244,877;   -3,576;16808,057; 0,01480
 907,76;16157,955;   -4,061;16844,928; 0,01808
 908,31;16186,186;   -5,000;16822,465; 0,01674
 908,87;16251,778;   -4,576;16667,668; 0,01097
 909,42;16277,766;   -4,485;16497,055; 0,00581
 909,97;16227,995;   -4,061;16331,440; 0,00276
 910,53;16150,498;   -5,091;16339,614; 0,00505
 911,08;16039,788;   -4,939;16307,394; 0,00718
 911,63;15994,091;   -3,000;16309,242; 0,00847
 912,19;15968,272;   -4,909;16247,303; 0,00752
 912,74;16018,879;   -4,455;16105,637; 0,00235
 913,29;15967,030;   -5,212;15893,454;-0,00201
 913,85;15874,121;   -5,303;15743,909;-0,00358
 914,40;15694,242;   -5,061;15647,030;-0,00131
 914,95;15469,091;   -5,152;15595,788; 0,00354
 915,51;15341,363;   -4,455;15637,091; 0,00829
 916,06;15285,606;   -3,030;15654,424; 0,01035
 916,61;15326,424;   -7,000;15649,061; 0,00904
 917,16;15356,728;   -3,848;15527,484; 0,00480
 917,72;15430,606;   -4,879;15375,484;-0,00155
 918,27;15388,939;   -4,636;15217,667;-0,00486
 918,82;15256,516;   -4,273;15115,151;-0,00404
 919,37;15051,758;   -5,970;15096,242; 0,00128
 919,93;14935,606;   -4,182;15115,849; 0,00521
 920,48;14843,576;   -4,061;15027,667; 0,00535
 921,03;14800,182;   -5,545;14942,879; 0,00417
 921,58;14790,000;   -5,242;14764,667;-0,00074
 922,14;14740,091;   -5,212;14522,606;-0,00645
 922,69;14680,546;   -4,303;14418,272;-0,00783
 923,24;14521,788;   -4,333;14317,576;-0,00615
 923,79;14363,000;   -5,909;14277,454;-0,00259
 924,35;14290,061;   -3,424;14364,484; 0,00226
 924,90;14254,151;   -5,121;14384,061; 0,00394
 925,45;14298,909;   -5,273;14356,363; 0,00174
 926,00;14408,516;   -4,485;14231,182;-0,00538
 926,55;14428,121;   -4,485;14082,697;-0,01052
 927,11;14369,849;   -4,212;13896,394;-0,01455
 927,66;14182,546;   -3,879;13799,303;-0,01189
 928,21;13900,424;   -5,485;13740,333;-0,00503
 928,76;13755,182;   -3,909;13739,576;-0,00049
 929,31;13638,182;   -5,121;13714,121; 0,00241
 929,86;13531,606;   -3,697;13622,182; 0,00290
 930,42;13491,667;   -5,303;13485,637;-0,00019
 930,97;13440,454;   -4,576;13315,363;-0,00406
 931,52;13292,272;   -4,364;13171,546;-0,00396
 932,07;13070,909;   -4,576;13082,424; 0,00038
 932,62;12852,758;   -4,485;13024,879; 0,00578
 933,17;12693,849;   -3,515;13016,939; 0,01091
 933,72;12651,363;   -6,152;12995,333; 0,01164
 934,28;12672,818;   -3,697;12879,272; 0,00702
 934,83;12750,939;   -4,394;12705,546;-0,00155
 935,38;12695,970;   -5,212;12474,697;-0,00763
 935,93;12534,272;   -4,273;12276,272;-0,00903
 936,48;12327,697;   -5,545;12170,303;-0,00558
 937,03;12079,637;   -4,152;12097,394; 0,00064
 937,58;11877,303;   -4,273;12050,424; 0,00628
 938,13;11757,454;   -5,030;12066,484; 0,01126
 938,68;11670,061;   -3,606;12010,939; 0,01250
 939,23;11563,242;   -4,970;11875,212; 0,01156
 939,79;11420,182;   -4,970;11685,151; 0,00996
 940,34;11258,212;   -4,485;11483,939; 0,00862
 940,89;11128,849;   -5,788;11339,516; 0,00814
 941,44;10982,788;   -4,394;11249,879; 0,01043
 941,99;10841,667;   -4,697;11156,788; 0,01244
 942,54;10766,061;   -5,424;11072,394; 0,01218
 943,09;10830,484;   -4,939;11050,091; 0,00871
 943,64;10864,788;   -4,303;10931,000; 0,00264
 944,19;10845,061;   -4,121;10715,212;-0,00523
 944,74;10763,061;   -4,394;10510,000;-0,01033
 945,29;10568,697;   -5,848;10345,788;-0,00925
 945,84;10375,394;   -4,030;10257,788;-0,00495
 946,39;10231,484;   -5,485;10225,242;-0,00026
 946,94;10103,182;   -5,242;10156,970; 0,00230
 947,49;10025,667;   -4,273;10061,333; 0,00154
 948,04; 9955,061;   -5,606; 9954,303;-0,00003
 948,59; 9926,576;   -4,515; 9793,061;-0,00588
 949,14; 9800,728;   -5,333; 9576,546;-0,01004
 949,69; 9629,758;   -4,788; 9389,970;-0,01095
 950,24; 9430,424;   -3,515; 9245,606;-0,00859
 950,79; 9277,454;   -6,182; 9189,546;-0,00413
 951,34; 9128,758;   -3,242; 9136,212; 0,00035
 951,89; 9036,516;   -4,515; 9073,151; 0,00176
 952,44; 8948,000;   -5,242; 8935,758;-0,00059
 952,99; 8881,030;   -3,121; 8798,061;-0,00407
 953,54; 8808,182;   -5,212; 8604,788;-0,01014
 954,09; 8697,728;   -5,333; 8438,788;-0,01312
 954,64; 8547,091;   -4,152; 8283,606;-0,01359
 955,19; 8371,121;   -5,909; 8204,788;-0,00871
 955,74; 8222,849;   -3,606; 8137,030;-0,00455
 956,28; 8091,000;   -4,576; 8064,909;-0,00140
 956,83; 8044,849;   -4,697; 8021,849;-0,00124
 957,38; 7970,758;   -3,333; 7906,030;-0,00354
 957,93; 7934,151;   -5,848; 7771,515;-0,00899
 958,48; 7871,455;   -3,879; 7644,909;-0,01268
 959,03; 7780,182;   -4,273; 7536,000;-0,01384
 959,58; 7632,576;   -5,061; 7457,515;-0,01007
 960,13; 7505,545;   -4,515; 7422,758;-0,00481
 960,68; 7436,727;   -6,091; 7425,121;-0,00068
 961,23; 7414,576;   -4,030; 7417,273; 0,00016
 961,77; 7401,061;   -4,212; 7370,697;-0,00178
 962,32; 7397,636;   -5,212; 7312,242;-0,00504
 962,87; 7360,182;   -3,455; 7201,394;-0,00947
 963,42; 7291,697;   -4,576; 7105,788;-0,01121
 963,97; 7178,939;   -5,091; 7036,182;-0,00872
 964,52; 7078,758;   -4,333; 7019,697;-0,00364
 965,07; 6970,182;   -4,848; 7025,030; 0,00340
 965,61; 6885,667;   -3,576; 7051,818; 0,01035
 966,16; 6849,727;   -3,909; 7039,151; 0,01184
 966,71; 6840,030;   -4,939; 6996,970; 0,00984
 967,26; 6820,636;   -3,636; 6939,515; 0,00750
 967,81; 6786,788;   -5,545; 6829,121; 0,00270
 968,36; 6729,758;   -4,909; 6751,212; 0,00138
 968,90; 6661,333;   -3,212; 6703,576; 0,00274
 969,45; 6590,424;   -6,061; 6696,939; 0,00696
 970,00; 6496,606;   -4,000; 6682,818; 0,01227
 970,55; 6434,667;   -4,030; 6667,909; 0,01545
 971,10; 6375,212;   -4,848; 6630,939; 0,01707
 971,64; 6363,849;   -4,030; 6585,636; 0,01487
 972,19; 6343,303;   -6,242; 6501,485; 0,01069
 972,74; 6305,879;   -4,606; 6418,636; 0,00769
 973,29; 6211,455;   -4,485; 6314,030; 0,00711
 973,84; 6142,212;   -4,394; 6263,667; 0,00850
 974,38; 6043,030;   -3,909; 6227,576; 0,01306
 974,93; 5991,000;   -4,727; 6218,273; 0,01616
 975,48; 5967,606;   -5,424; 6221,849; 0,01810
 976,03; 5963,455;   -4,242; 6187,333; 0,01599
 976,57; 5971,606;   -5,212; 6086,364; 0,00826
 977,12; 5965,879;   -3,818; 5991,182; 0,00184
 977,67; 5947,242;   -5,667; 5886,000;-0,00449
 978,21; 5907,182;   -4,758; 5822,000;-0,00630
 978,76; 5850,030;   -4,455; 5754,061;-0,00718
 979,31; 5782,970;   -4,970; 5741,212;-0,00314
 979,86; 5728,182;   -4,636; 5748,364; 0,00153
 980,40; 5683,667;   -3,182; 5728,545; 0,00341
 980,95; 5647,515;   -5,091; 5682,394; 0,00267
 981,50; 5631,182;   -3,182; 5637,970; 0,00052
 982,04; 5602,061;   -5,939; 5572,242;-0,00232
 982,59; 5552,939;   -3,485; 5502,242;-0,00398
 983,14; 5480,788;   -3,788; 5457,939;-0,00181
 983,68; 5388,121;   -5,424; 5391,364; 0,00026
 984,23; 5319,182;   -3,697; 5401,636; 0,00668
 984,78; 5259,151;   -3,970; 5384,727; 0,01024
 985,32; 5225,212;   -4,758; 5379,909; 0,01266
 985,87; 5199,788;   -4,667; 5356,970; 0,01292
 986,42; 5195,000;   -5,667; 5292,061; 0,00803
 986,96; 5182,424;   -3,667; 5239,061; 0,00472
 987,51; 5178,606;   -4,545; 5185,758; 0,00060
 988,06; 5120,242;   -5,848; 5116,606;-0,00031
 988,60; 5063,909;   -3,697; 5077,545; 0,00117
 989,15; 4994,818;   -4,818; 5063,091; 0,00589
 989,70; 4967,424;   -4,606; 5067,030; 0,00861
 990,24; 4943,849;   -5,364; 5069,182; 0,01086
 990,79; 4950,303;   -5,273; 5071,455; 0,01049
 991,33; 4934,121;   -4,121; 5043,970; 0,00955
 991,88; 4952,939;   -5,333; 4992,576; 0,00346
 992,43; 4955,545;   -4,939; 4929,515;-0,00228
 992,97; 4927,000;   -4,212; 4890,000;-0,00327
 993,52; 4875,697;   -4,273; 4847,303;-0,00253
 994,06; 4814,273;   -4,242; 4840,879; 0,00239
 994,61; 4785,515;   -4,636; 4827,697; 0,00381
 995,16; 4759,424;   -4,091; 4832,303; 0,00659
 995,70; 4753,151;   -5,152; 4815,970; 0,00570
 996,25; 4755,788;   -5,333; 4814,303; 0,00531
 996,79; 4763,697;   -3,788; 4774,879; 0,00102
 997,34; 4728,697;   -4,182; 4745,636; 0,00155
 997,88; 4710,455;   -5,091; 4700,788;-0,00089
 998,43; 4660,849;   -4,455; 4658,091;-0,00026
 998,97; 4602,667;   -4,697; 4623,849; 0,00199
 999,52; 4552,151;   -5,939; 4641,455; 0,00843
1000,06; 4515,849;   -4,333; 4640,667; 0,01183
1000,61; 4514,273;   -5,788; 4625,576; 0,01056
1001,15; 4505,697;   -3,152; 4598,909; 0,00889
1001,70; 4485,303;   -4,758; 4543,697; 0,00561
1002,24; 4465,303;   -5,212; 4469,061; 0,00036
1002,79; 4428,303;   -4,545; 4420,242;-0,00079
1003,33; 4352,939;   -5,061; 4363,091; 0,00101
1003,88; 4272,939;   -4,606; 4333,485; 0,00610
1004,42; 4213,788;   -4,485; 4320,667; 0,01087
1004,97; 4171,182;   -6,030; 4322,849; 0,01549
1005,51; 4128,909;   -4,121; 4324,485; 0,02008
1006,06; 4123,849;   -5,182; 4317,273; 0,01988
1006,60; 4112,727;   -4,636; 4276,667; 0,01696
1007,15; 4101,818;   -4,091; 4253,545; 0,01576
1007,69; 4083,030;   -4,727; 4216,970; 0,01400
1008,24; 4056,545;   -3,333; 4169,727; 0,01194
1008,78; 4012,030;   -5,091; 4143,303; 0,01397
1009,33; 3960,939;   -4,212; 4122,667; 0,01736
1009,87; 3900,848;   -4,636; 4121,364; 0,02385
1010,41; 3872,242;   -4,788; 4112,000; 0,02606
1010,96; 3859,091;   -4,424; 4085,727; 0,02476
1011,50; 3848,636;   -5,636; 4061,606; 0,02336
1012,05; 3846,333;   -6,121; 4021,758; 0,01934
1012,59; 3838,515;   -4,394; 3960,545; 0,01358
1013,13; 3828,030;   -4,091; 3906,212; 0,00877
1013,68; 3816,121;   -4,424; 3850,030; 0,00384
1014,22; 3761,212;   -4,424; 3813,242; 0,00596
1014,77; 3739,152;   -4,667; 3801,091; 0,00713
1015,31; 3697,970;   -3,697; 3792,000; 0,01089
1015,85; 3688,970;   -4,333; 3785,758; 0,01123
1016,40; 3688,576;   -4,303; 3787,576; 0,01149
1016,94; 3680,182;   -4,121; 3748,212; 0,00795
1017,48; 3686,121;   -5,091; 3699,212; 0,00154
1018,03; 3677,848;   -3,182; 3666,152;-0,00138
1018,57; 3665,273;   -5,212; 3623,788;-0,00494
1019,11; 3616,697;   -4,667; 3577,848;-0,00468
1019,66; 3575,455;   -4,030; 3540,424;-0,00427
1020,20; 3546,909;   -5,121; 3536,667;-0,00125
1020,74; 3517,273;   -4,879; 3533,091; 0,00195
1021,29; 3501,758;   -4,848; 3516,697; 0,00185
1021,83; 3474,909;   -5,727; 3490,273; 0,00191
1022,37; 3459,848;   -3,545; 3453,273;-0,00083
1022,92; 3467,636;   -6,152; 3403,970;-0,00803
1023,46; 3444,606;   -5,030; 3366,455;-0,00995
1024,00; 3402,273;   -4,485; 3320,455;-0,01056
1024,55; 3369,636;   -5,515; 3293,000;-0,00997
1025,09; 3337,818;   -3,879; 3277,364;-0,00793
1025,63; 3297,606;   -4,667; 3265,788;-0,00420
1026,17; 3269,697;   -6,182; 3246,636;-0,00307
1026,72; 3265,879;   -4,152; 3235,848;-0,00401
1027,26; 3261,455;   -5,121; 3231,909;-0,00395
1027,80; 3246,939;   -5,091; 3202,727;-0,00594
1028,35; 3245,242;   -4,697; 3167,788;-0,01048
1028,89; 3219,909;   -5,424; 3133,455;-0,01180
1029,43; 3193,727;   -4,212; 3095,758;-0,01351
1029,97; 3157,788;   -6,364; 3082,515;-0,01046
1030,52; 3122,394;   -4,545; 3076,121;-0,00647
1031,06; 3069,394;   -3,758; 3062,788;-0,00093
1031,60; 3042,848;   -6,273; 3054,182; 0,00161
1032,14; 3016,182;   -3,970; 3029,333; 0,00189
1032,68; 2989,091;   -4,667; 3013,333; 0,00350
1033,23; 2963,091;   -5,515; 2983,000; 0,00290
1033,77; 2936,030;   -4,818; 2932,939;-0,00046
1034,31; 2911,364;   -5,242; 2901,121;-0,00153
1034,85; 2875,182;   -4,091; 2856,394;-0,00284
1035,39; 2812,152;   -4,727; 2813,364; 0,00019
1035,94; 2758,667;   -5,061; 2792,758; 0,00532
1036,48; 2711,788;   -4,636; 2761,545; 0,00788
1037,02; 2671,364;   -4,727; 2741,939; 0,01131
1037,56; 2649,455;   -4,848; 2728,939; 0,01281
1038,10; 2609,758;   -3,152; 2700,606; 0,01484
1038,64; 2595,818;   -5,212; 2652,061; 0,00929
1039,19; 2568,212;   -3,545; 2612,606; 0,00743
1039,73; 2541,424;   -5,879; 2567,030; 0,00434
1040,27; 2520,606;   -5,939; 2522,455; 0,00032
1040,81; 2472,818;   -5,091; 2477,758; 0,00086
1041,35; 2429,939;   -5,364; 2441,273; 0,00202
1041,89; 2387,545;   -3,606; 2420,909; 0,00602
1042,43; 2358,333;   -4,152; 2396,545; 0,00697
1042,97; 2327,030;   -4,455; 2376,970; 0,00920
1043,52; 2305,333;   -3,182; 2354,485; 0,00915
1044,06; 2274,333;   -4,818; 2331,636; 0,01078
1044,60; 2258,121;   -4,424; 2294,121; 0,00686
1045,14; 2230,394;   -4,455; 2257,333; 0,00520
1045,68; 2192,545;   -4,606; 2223,333; 0,00604
1046,22; 2161,667;   -4,515; 2182,667; 0,00419
1046,76; 2122,394;   -4,636; 2157,697; 0,00715
1047,30; 2083,545;   -4,939; 2137,485; 0,01107
1047,84; 2056,545;   -4,424; 2113,697; 0,01188
1048,38; 2014,455;   -5,091; 2106,000; 0,01925
1048,92; 1991,697;   -5,242; 2085,970; 0,02003
1049,46; 1974,121;   -3,758; 2063,667; 0,01923
1050,00; 1964,151;   -4,909; 2033,788; 0,01509
1050,55; 1942,879;   -4,061; 1992,121; 0,01085
1051,09; 1925,273;   -3,939; 1953,455; 0,00630
1051,63; 1891,667;   -4,727; 1931,151; 0,00895
1052,17; 1861,364;   -3,727; 1889,242; 0,00644
1052,71; 1823,788;   -5,152; 1856,758; 0,00776
1053,25; 1782,394;   -5,061; 1833,030; 0,01213
1053,79; 1764,394;   -4,182; 1809,727; 0,01099
1054,33; 1738,394;   -4,152; 1795,182; 0,01393
1054,87; 1708,303;   -4,030; 1758,364; 0,01251
1055,41; 1699,667;   -5,545; 1745,485; 0,01152
1055,95; 1676,364;   -3,485; 1703,273; 0,00690
1056,49; 1651,364;   -4,424; 1670,303; 0,00494
1057,03; 1626,121;   -6,242; 1629,061; 0,00078
1057,57; 1595,545;   -3,273; 1607,818; 0,00332
1058,11; 1563,758;   -4,485; 1583,030; 0,00530
1058,64; 1541,667;   -4,152; 1570,242; 0,00796
1059,18; 1518,879;   -4,242; 1559,273; 0,01137
1059,72; 1501,576;   -5,273; 1549,636; 0,01364
1060,26; 1485,455;   -2,970; 1521,545; 0,01040
1060,80; 1476,879;   -5,273; 1509,606; 0,00949
1061,34; 1454,879;   -5,727; 1490,000; 0,01032
1061,88; 1453,000;   -3,667; 1461,364; 0,00249
1062,42; 1429,788;   -4,485; 1437,030; 0,00219
1062,96; 1404,121;   -4,485; 1414,939; 0,00332
1063,50; 1389,606;   -4,667; 1392,364; 0,00086
1064,04; 1362,061;   -4,545; 1372,788; 0,00340
1064,58; 1349,485;   -4,303; 1361,242; 0,00376
1065,12; 1336,727;   -4,909; 1350,303; 0,00437
1065,65; 1319,758;   -4,091; 1349,121; 0,00953
1066,19; 1310,151;   -3,970; 1321,182; 0,00363
1066,73; 1300,545;   -4,667; 1309,727; 0,00304
1067,27; 1293,212;   -3,364; 1294,606; 0,00047
1067,81; 1282,818;   -3,939; 1271,364;-0,00388
1068,35; 1269,939;   -4,091; 1251,909;-0,00619
1068,89; 1254,030;   -4,182; 1233,970;-0,00698
1069,43; 1227,000;   -5,303; 1211,818;-0,00538
1069,96; 1206,242;   -4,485; 1198,879;-0,00265
1070,50; 1186,212;   -4,939; 1185,970;-0,00009
1071,04; 1167,273;   -3,848; 1177,879; 0,00392
1071,58; 1155,242;   -4,485; 1161,273; 0,00225
1072,12; 1139,970;   -5,182; 1156,939; 0,00639
1072,66; 1133,636;   -4,242; 1141,151; 0,00286
1073,19; 1119,000;   -4,061; 1120,909; 0,00074
1073,73; 1108,333;   -5,152; 1103,242;-0,00199
1074,27; 1090,636;   -3,515; 1077,758;-0,00514
1074,81; 1070,697;   -4,515; 1066,273;-0,00179
1075,35; 1052,818;   -4,788; 1047,545;-0,00217
1075,88; 1029,697;   -4,364; 1028,849;-0,00036
1076,42; 1011,121;   -6,091; 1023,061; 0,00507
1076,96;  996,182;   -4,333; 1012,061; 0,00684
1077,50;  984,576;   -4,727;  996,212; 0,00508
1078,04;  971,242;   -5,242;  979,364; 0,00360
1078,57;  961,273;   -3,727;  971,515; 0,00459
1079,11;  947,455;   -4,212;  954,818; 0,00335
1079,65;  939,636;   -4,030;  938,515;-0,00052
1080,19;  923,576;   -4,273;  918,364;-0,00245
1080,72;  906,636;   -5,333;  907,606; 0,00046
1081,26;  888,727;   -4,061;  893,576; 0,00235
1081,80;  877,455;   -5,636;  880,061; 0,00128
1082,33;  864,273;   -5,606;  870,242; 0,00297
1082,87;  848,364;   -4,818;  858,545; 0,00515
1083,41;  834,697;   -4,121;  848,545; 0,00711
1083,95;  823,151;   -3,818;  835,727; 0,00655
1084,48;  814,515;   -5,636;  829,515; 0,00787
1085,02;  810,455;   -4,879;  810,394;-0,00003
1085,56;  795,364;   -3,515;  798,212; 0,00155
1086,09;  788,121;   -5,121;  779,727;-0,00462
1086,63;  774,515;   -4,364;  773,455;-0,00059
1087,17;  758,818;   -4,727;  752,394;-0,00367
1087,70;  748,485;   -5,545;  747,394;-0,00063
1088,24;  726,970;   -3,576;  738,576; 0,00685
1088,78;  719,242;   -4,939;  728,121; 0,00529
1089,31;  707,242;   -5,030;  719,515; 0,00742
1089,85;  701,879;   -4,000;  711,849; 0,00609
1090,39;  690,545;   -4,576;  703,030; 0,00773
1090,92;  684,758;   -3,909;  696,849; 0,00756
1091,46;  672,212;   -4,485;  677,121; 0,00314
1092,00;  664,545;   -5,212;  671,030; 0,00418
1092,53;  655,333;   -4,061;  656,485; 0,00076
1093,07;  646,758;   -4,273;  646,424;-0,00022
1093,60;  633,182;   -5,061;  637,758; 0,00310
1094,14;  622,636;   -4,515;  629,727; 0,00488
1094,68;  617,061;   -4,879;  625,849; 0,00609
1095,21;  608,273;   -2,848;  609,151; 0,00062
1095,75;  598,667;   -4,788;  603,273; 0,00330
1096,28;  592,091;   -4,576;  598,121; 0,00437
1096,82;  586,606;   -5,000;  587,909; 0,00096
1097,36;  581,000;   -5,667;  578,061;-0,00218
1097,89;  570,939;   -4,455;  565,030;-0,00448
1098,43;  562,939;   -4,606;  558,970;-0,00305
1098,96;  556,939;   -4,909;  550,333;-0,00514
1099,50;  546,061;   -3,939;  537,061;-0,00717
1100,03;  532,788;   -5,303;  530,788;-0,00162

