AE-441-2-2
Integration time [ms]:  10,000
Averaging Nr. [scans]: 33
Smoothing Nr. [pixels]: 0
Data measured with spectrometer [name]: AvaSpec-ULS-TEC-EVO
Wave   ;Sample   ;Dark     ;Reference;Absorbance
[nm]   ;[counts] ;[counts] ;[counts] ;[A.U]

 179,38;   15,113;   -5,697;  183,271; 0,95812
 179,98;   15,672;   -6,394;  183,951; 0,93581
 180,58;   24,055;   -5,697;  195,359; 0,82980
 181,18;   18,734;   -5,727;  191,960; 0,90750
 181,78;   14,547;   -7,030;  187,049; 0,95397
 182,38;   13,530;   -5,879;  185,918; 0,99484
 182,97;   15,562;   -7,515;  192,438; 0,93775
 183,57;   16,075;   -7,576;  190,767; 0,92356
 184,17;    8,661;   -7,061;  190,457; 1,09911
 184,77;    9,918;   -8,667;  188,500; 1,02569
 185,37;    5,610;   -6,455;  189,724; 1,21114
 185,97;    1,744;   -6,152;  190,974; 1,39737
 186,57;    5,108;   -8,515;  192,472; 1,16890
 187,17;    0,436;   -5,970;  195,959; 1,49866
 187,77;  -12,379;   -7,424;  182,534; 5,00000
 188,37;    0,260;   -7,697;  192,077; 1,39977
 188,97;  -14,629;   -7,485;  185,852; 5,00000
 189,57;  -11,236;   -7,758;  190,202; 5,00000
 190,17;  -20,473;   -6,273;  186,389; 5,00000
 190,77;  -20,189;   -7,606;  186,496; 5,00000
 191,37;  -26,940;   -6,455;  187,462; 5,00000
 191,96;  -28,342;   -7,303;  189,901; 5,00000
 192,56;  -49,996;   -7,455;  177,583; 5,00000
 193,16;  -41,535;   -5,364;  188,529; 5,00000
 193,76;  -32,191;   -6,515;  210,966; 5,00000
 194,36;  -53,536;   -7,091;  187,436; 5,00000
 194,96;  -56,218;   -6,121;  191,774; 5,00000
 195,56;  -40,220;   -6,818;  212,295; 5,00000
 196,16;  -20,046;   -6,394;  234,356; 5,00000
 196,76;   -2,154;   -6,970;  267,851; 1,75637
 197,36;    3,005;   -6,818;  274,036; 1,45623
 197,95;   15,501;   -5,576;  298,560; 1,15925
 198,55;    8,271;   -6,333;  310,541; 1,33641
 199,15;   12,623;   -7,030;  331,616; 1,23630
 199,75;   19,281;   -5,303;  377,558; 1,19239
 200,35;   10,305;   -7,576;  432,867; 1,39150
 200,95;   17,688;   -6,788;  530,427; 1,34141
 201,55;   14,052;   -6,818;  661,756; 1,50562
 202,15;   12,142;   -5,970;  827,626; 1,66300
 202,74;   20,967;   -5,848; 1038,464; 1,59044
 203,34;   16,084;   -7,303; 1260,095; 1,73394
 203,94;   26,895;   -6,000; 1507,388; 1,66282
 204,54;   18,282;   -6,000; 1737,034; 1,85602
 205,14;   26,424;   -6,939; 1976,846; 1,77423
 205,74;   19,088;   -6,212; 2214,693; 1,94341
 206,34;   19,680;   -6,212; 2463,438; 1,97947
 206,93;   23,257;   -5,576; 2711,067; 1,97415
 207,53;   22,590;   -5,545; 2975,980; 2,02519
 208,13;   21,846;   -7,697; 3226,451; 2,03931
 208,73;   28,138;   -6,000; 3520,691; 2,01413
 209,33;   17,964;   -6,424; 3847,814; 2,19875
 209,93;   26,682;   -6,182; 4213,379; 2,10855
 210,52;   25,833;   -6,576; 4598,400; 2,15257
 211,12;   32,732;   -6,121; 5043,692; 2,11384
 211,72;   29,865;   -4,667; 5515,708; 2,20375
 212,32;   30,609;   -6,515; 6010,661; 2,20974
 212,92;   28,591;   -6,152; 6494,608; 2,27210
 213,52;   30,637;   -6,061; 6943,747; 2,27733
 214,11;   26,091;   -5,606; 7322,643; 2,36397
 214,71;   35,186;   -5,000; 7558,727; 2,27466
 215,31;   28,242;   -6,061; 7472,132; 2,33847
 215,91;   38,357;   -5,879; 6942,027; 2,19608
 216,51;   30,806;   -4,576; 5755,033; 2,21162
 217,10;   24,973;   -5,030; 4118,990; 2,13815
 217,70;   24,393;   -5,364; 3361,560; 2,05365
 218,30;   31,688;   -5,333; 4972,892; 2,12863
 218,90;   29,833;   -6,212; 8297,274; 2,36241
 219,50;   43,368;   -3,939;11675,043; 2,39247
 220,09;   41,778;   -5,970;14367,909; 2,47862
 220,69;   48,019;   -5,000;16414,025; 2,49092
 221,29;   48,747;   -4,788;17914,641; 2,52468
 221,89;   40,102;   -6,242;19158,131; 2,61649
 222,49;   51,579;   -4,848;20175,232; 2,55343
 223,08;   52,217;   -5,727;21071,574; 2,56081
 223,68;   56,778;   -5,576;21915,307; 2,54600
 224,28;   51,378;   -4,515;22714,564; 2,60903
 224,88;   54,319;   -5,091;23471,271; 2,59677
 225,47;   52,635;   -3,939;24186,896; 2,63103
 226,07;   57,852;   -5,212;24963,004; 2,59760
 226,67;   55,667;   -4,121;25738,084; 2,63403
 227,27;   62,109;   -3,848;26517,816; 2,60434
 227,87;   56,712;   -4,394;27210,955; 2,64873
 228,46;   62,442;   -4,788;27974,336; 2,61927
 229,06;   56,696;   -4,091;28742,711; 2,67478
 229,66;   66,882;   -6,000;29454,549; 2,60662
 230,26;   65,302;   -3,970;30170,123; 2,63908
 230,85;   62,163;   -4,939;30845,266; 2,66252
 231,45;   66,997;   -6,061;31559,936; 2,63555
 232,05;   72,864;   -5,182;32206,180; 2,61566
 232,64;   71,163;   -4,485;32789,664; 2,63700
 233,24;   75,933;   -4,303;33352,063; 2,61881
 233,84;   78,356;   -5,576;33859,813; 2,60583
 234,44;   90,950;   -5,394;34365,984; 2,55237
 235,03;   93,260;   -4,303;34737,582; 2,55157
 235,63;  106,750;   -5,727;35140,262; 2,49481
 236,23;  129,408;   -4,545;35501,039; 2,42334
 236,83;  141,044;   -4,152;35795,965; 2,39193
 237,42;  155,406;   -6,424;36151,320; 2,34914
 238,02;  166,974;   -5,273;36476,672; 2,32593
 238,62;  204,119;   -5,424;36755,277; 2,24411
 239,21;  225,117;   -4,182;36981,414; 2,20763
 239,81;  258,845;   -3,970;37279,258; 2,15186
 240,41;  292,586;   -6,000;37579,531; 2,09995
 241,00;  334,191;   -4,879;37772,488; 2,04694
 241,60;  373,479;   -5,758;37922,195; 2,00005
 242,20;  426,632;   -6,030;38028,563; 1,94403
 242,80;  479,086;   -5,030;38109,902; 1,89615
 243,39;  539,863;   -5,485;38227,320; 1,84576
 243,99;  592,978;   -4,515;38294,785; 1,80686
 244,59;  661,102;   -5,182;38311,953; 1,75973
 245,18;  727,373;   -5,545;38348,125; 1,71875
 245,78;  796,903;   -5,576;38382,453; 1,67976
 246,38;  869,616;   -5,606;38414,793; 1,64244
 246,97;  966,394;   -6,455;38512,613; 1,59763
 247,57; 1045,547;   -4,061;38505,090; 1,56454
 248,17; 1121,864;   -5,333;38553,242; 1,53412
 248,76; 1212,014;   -3,636;38629,707; 1,50215
 249,36; 1309,003;   -6,333;38638,281; 1,46805
 249,96; 1400,940;   -5,667;38766,492; 1,44035
 250,55; 1516,082;   -4,485;38891,996; 1,40790
 251,15; 1612,031;   -5,667;38915,746; 1,38129
 251,75; 1719,261;   -5,818;39007,301; 1,35440
 252,34; 1830,213;   -5,121;39112,746; 1,32866
 252,94; 1952,779;   -6,424;39253,223; 1,30187
 253,54; 2066,363;   -4,788;39331,664; 1,27858
 254,13; 2184,698;   -6,061;39393,199; 1,25489
 254,73; 2322,750;   -5,394;39401,516; 1,22856
 255,32; 2428,104;   -4,455;39447,074; 1,21000
 255,92; 2565,838;   -5,909;39402,656; 1,18536
 256,52; 2687,653;   -4,636;39423,309; 1,16568
 257,11; 2817,093;   -5,061;39351,406; 1,14444
 257,71; 2941,464;   -6,818;39242,395; 1,12426
 258,31; 3048,685;   -3,818;39084,195; 1,10739
 258,90; 3149,531;   -6,576;38841,102; 1,09021
 259,50; 3241,701;   -4,424;38477,199; 1,07389
 260,09; 3318,199;   -5,455;38043,656; 1,05873
 260,69; 3377,746;   -6,152;37515,285; 1,04486
 261,29; 3434,201;   -4,394;36955,039; 1,03134
 261,88; 3471,215;   -5,545;36389,703; 1,01987
 262,48; 3528,322;   -6,909;35981,145; 1,00774
 263,07; 3583,017;   -4,576;35781,844; 0,99892
 263,67; 3678,474;   -6,364;35888,934; 0,98862
 264,27; 3761,463;   -5,242;36052,168; 0,98103
 264,86; 3840,627;   -6,030;36273,547; 0,97458
 265,46; 3907,975;   -5,030;36401,313; 0,96867
 266,05; 3970,873;   -5,333;36462,355; 0,96244
 266,65; 4028,414;   -6,667;36441,137; 0,95582
 267,24; 4060,747;   -4,727;36447,398; 0,95261
 267,84; 4095,612;   -5,667;36364,387; 0,94782
 268,44; 4118,940;   -7,455;36193,766; 0,94315
 269,03; 4120,930;   -4,667;36096,773; 0,94204
 269,63; 4140,354;   -6,030;35933,605; 0,93790
 270,22; 4147,385;   -5,788;35708,254; 0,93446
 270,82; 4129,792;   -3,909;35421,059; 0,93297
 271,41; 4120,627;   -6,636;35158,395; 0,93045
 272,01; 4106,015;   -4,848;34902,125; 0,92898
 272,61; 4120,553;   -5,758;34781,617; 0,92586
 273,20; 4157,535;   -5,485;34888,551; 0,92334
 273,80; 4204,779;   -4,394;35064,117; 0,92072
 274,39; 4272,885;   -6,000;35388,973; 0,91761
 274,99; 4311,762;   -5,606;35621,758; 0,91656
 275,58; 4379,901;   -5,636;35844,973; 0,91247
 276,18; 4440,761;   -5,939;36002,504; 0,90837
 276,77; 4503,719;   -4,909;36181,840; 0,90451
 277,37; 4558,641;   -5,576;36334,879; 0,90102
 277,96; 4613,804;   -4,970;36396,391; 0,89659
 278,56; 4688,854;   -6,121;36503,145; 0,89077
 279,15; 4764,972;   -6,212;36550,648; 0,88434
 279,75; 4818,345;   -5,030;36674,930; 0,88108
 280,34; 4890,412;   -5,273;36742,938; 0,87542
 280,94; 4959,352;   -6,061;36824,090; 0,87025
 281,53; 5042,620;   -4,273;36883,555; 0,86386
 282,13; 5114,393;   -5,848;36865,199; 0,85740
 282,73; 5208,034;   -5,636;36903,324; 0,84999
 283,32; 5303,700;   -4,727;36914,262; 0,84228
 283,92; 5404,984;   -5,091;36814,660; 0,83288
 284,51; 5531,839;   -4,788;36905,891; 0,82391
 285,10; 5634,410;   -4,121;36902,527; 0,81594
 285,70; 5755,090;   -4,939;36850,105; 0,80607
 286,29; 5871,867;   -5,000;36768,574; 0,79639
 286,89; 5960,385;   -5,182;36587,906; 0,78775
 287,48; 5996,999;   -4,970;36180,215; 0,78024
 288,08; 5997,607;   -5,576;35564,789; 0,77271
 288,67; 5987,468;   -6,212;34796,434; 0,76392
 289,27; 5974,861;   -5,030;34253,469; 0,75808
 289,86; 6067,821;   -5,848;34207,477; 0,75074
 290,46; 6259,321;   -5,303;34607,641; 0,74234
 291,05; 6510,018;   -5,727;35354,926; 0,73456
 291,65; 6792,606;   -5,606;36101,219; 0,72519
 292,24; 7071,563;   -3,818;36783,230; 0,71595
 292,84; 7328,667;   -5,848;37216,207; 0,70543
 293,43; 7591,077;   -5,667;37457,422; 0,69298
 294,03; 7826,591;   -5,818;37593,473; 0,68128
 294,62; 8027,938;   -5,515;37634,289; 0,67075
 295,21; 8205,728;   -4,848;37602,523; 0,66090
 295,81; 8348,500;   -5,879;37394,438; 0,65096
 296,40; 8445,813;   -5,182;36968,965; 0,64099
 297,00; 8505,454;   -3,879;36259,848; 0,62958
 297,59; 8388,818;   -6,424;35104,309; 0,62141
 298,19; 8308,990;   -4,758;34116,621; 0,61323
 298,78; 8497,256;   -4,727;34359,102; 0,60658
 299,37; 8922,408;   -5,030;35360,055; 0,59785
 299,97; 9273,009;   -5,364;36138,246; 0,59056
 300,56; 9493,396;   -5,333;36442,344; 0,58400
 301,16; 9631,988;   -5,576;36449,012; 0,57778
 301,75; 9741,760;   -5,697;36363,313; 0,57184
 302,35; 9840,315;   -5,242;36253,352; 0,56617
 302,94; 9922,540;   -5,152;36109,250; 0,56083
 303,53; 9976,957;   -5,818;35916,410; 0,55611
 304,13;10025,942;   -5,061;35676,359; 0,55110
 304,72;10062,652;   -4,576;35475,926; 0,54708
 305,32;10087,108;   -6,061;35242,215; 0,54311
 305,91;10098,970;   -5,121;34899,070; 0,53838
 306,50;10135,305;   -5,273;34630,727; 0,53347
 307,10;10107,913;   -4,879;34300,363; 0,53049
 307,69;10134,580;   -4,606;33922,133; 0,52454
 308,28;10076,835;   -5,606;33516,250; 0,52176
 308,88;10056,008;   -4,970;33112,422; 0,51742
 309,47; 9972,880;   -4,121;32652,670; 0,51497
 310,07; 9915,865;   -6,727;32194,479; 0,51125
 310,66; 9855,409;   -4,394;31768,002; 0,50818
 311,25; 9878,201;   -4,242;31525,541; 0,50386
 311,85; 9916,650;   -5,000;31415,010; 0,50062
 312,44; 9979,682;   -4,242;31366,596; 0,49722
 313,03;10037,183;   -4,879;31280,365; 0,49352
 313,63;10094,047;   -4,273;31103,824; 0,48862
 314,22;10135,395;   -5,697;30937,867; 0,48449
 314,81;10125,697;   -7,091;30669,145; 0,48107
 315,41;10119,578;   -4,364;30366,695; 0,47711
 316,00;10076,133;   -5,606;30028,918; 0,47409
 316,59;10004,134;   -5,091;29628,516; 0,47138
 317,19; 9912,926;   -5,606;29184,859; 0,46879
 317,78; 9841,409;   -5,485;28678,227; 0,46434
 318,37; 9811,425;   -4,545;28432,963; 0,46196
 318,97; 9831,390;   -5,909;28275,779; 0,45863
 319,56; 9935,832;   -5,091;28321,191; 0,45476
 320,15;10036,891;   -5,818;28351,355; 0,45081
 320,75;10115,558;   -6,061;28379,896; 0,44785
 321,34;10163,315;   -4,879;28308,305; 0,44474
 321,93;10218,655;   -5,364;28197,891; 0,44068
 322,53;10239,771;   -6,061;28085,555; 0,43803
 323,12;10260,180;   -5,273;27987,084; 0,43566
 323,71;10293,453;   -5,455;27858,551; 0,43225
 324,31;10325,410;   -4,818;27718,012; 0,42873
 324,90;10350,850;   -4,697;27643,215; 0,42649
 325,49;10388,227;   -5,242;27555,084; 0,42352
 326,09;10447,498;   -4,788;27509,270; 0,42034
 326,68;10492,163;   -5,788;27496,961; 0,41827
 327,27;10522,136;   -5,848;27474,945; 0,41668
 327,86;10580,259;   -4,939;27486,283; 0,41450
 328,46;10647,773;   -5,606;27485,877; 0,41171
 329,05;10711,124;   -4,061;27518,600; 0,40969
 329,64;10797,667;   -5,606;27560,055; 0,40681
 330,23;10876,641;   -6,030;27603,438; 0,40432
 330,83;10911,510;   -4,212;27570,951; 0,40247
 331,42;10975,051;   -4,818;27557,576; 0,39972
 332,01;10991,275;   -5,636;27446,115; 0,39730
 332,61;10953,913;   -4,364;27288,061; 0,39630
 333,20;10927,729;   -6,212;27131,020; 0,39479
 333,79;10947,498;   -4,515;27067,818; 0,39303
 334,38;10987,928;   -6,576;27101,938; 0,39193
 334,98;11100,607;   -5,212;27294,746; 0,39061
 335,57;11271,519;   -5,030;27605,943; 0,38891
 336,16;11394,954;   -5,758;27776,881; 0,38684
 336,75;11519,959;   -5,091;27895,553; 0,38397
 337,34;11610,339;   -5,606;27979,238; 0,38187
 337,94;11662,141;   -5,636;27995,480; 0,38019
 338,53;11690,560;   -4,515;27947,764; 0,37841
 339,12;11717,803;   -5,212;27894,400; 0,37656
 339,71;11681,821;   -4,697;27727,506; 0,37530
 340,31;11607,306;   -4,364;27532,813; 0,37502
 340,90;11533,477;   -5,303;27213,021; 0,37270
 341,49;11344,471;   -5,091;26642,678; 0,37068
 342,08;11039,861;   -5,606;25822,486; 0,36891
 342,67;10799,256;   -5,515;25204,768; 0,36796
 343,27;10768,740;   -5,485;25085,512; 0,36713
 343,86;10928,234;   -5,788;25377,877; 0,36577
 344,45;11136,347;   -4,273;25714,488; 0,36334
 345,04;11205,669;   -4,394;25836,863; 0,36271
 345,63;11218,840;   -5,333;25796,635; 0,36150
 346,23;11232,146;   -4,091;25690,494; 0,35922
 346,82;11139,273;   -6,939;25385,057; 0,35757
 347,41;11046,569;   -5,273;24999,246; 0,35458
 348,00;10869,416;   -5,636;24527,104; 0,35331
 348,59;10681,988;   -5,394;24038,867; 0,35214
 349,19;10552,110;   -4,030;23647,756; 0,35036
 349,78;10440,449;   -5,121;23311,572; 0,34873
 350,37;10378,773;   -5,667;23045,695; 0,34631
 350,96;10246,044;   -4,727;22711,391; 0,34558
 351,55;10134,721;   -5,727;22376,773; 0,34385
 352,14;10002,469;   -5,636;22003,738; 0,34226
 352,74; 9891,349;   -5,727;21613,639; 0,33934
 353,33; 9719,017;   -6,152;21153,525; 0,33761
 353,92; 9545,668;   -4,000;20674,305; 0,33553
 354,51; 9360,317;   -6,000;20254,504; 0,33508
 355,10; 9200,409;   -5,121;19899,020; 0,33489
 355,69; 9141,844;   -4,636;19632,234; 0,33182
 356,28; 9147,291;   -5,970;19621,467; 0,33129
 356,88; 9206,542;   -4,303;19694,680; 0,33014
 357,47; 9263,803;   -5,545;19776,094; 0,32921
 358,06; 9303,881;   -4,909;19780,742; 0,32746
 358,65; 9303,513;   -4,394;19740,797; 0,32661
 359,24; 9256,779;   -6,970;19632,350; 0,32634
 359,83; 9218,652;   -4,182;19499,529; 0,32525
 360,42; 9165,304;   -5,000;19359,127; 0,32461
 361,01; 9113,802;   -6,182;19216,906; 0,32383
 361,61; 9045,933;   -4,636;19010,762; 0,32243
 362,20; 8993,072;   -7,030;18820,701; 0,32055
 362,79; 8886,782;   -4,273;18539,268; 0,31924
 363,38; 8733,118;   -5,818;18121,771; 0,31688
 363,97; 8491,986;   -4,909;17573,764; 0,31573
 364,56; 8208,612;   -5,364;16989,371; 0,31576
 365,15; 8086,771;   -5,727;16700,975; 0,31481
 365,74; 8238,366;   -4,667;17004,789; 0,31460
 366,33; 8542,091;   -5,000;17552,646; 0,31265
 366,92; 8723,255;   -6,667;17882,188; 0,31157
 367,51; 8823,684;   -2,727;18059,859; 0,31100
 368,11; 8774,535;   -4,909;17922,223; 0,31004
 368,70; 8735,499;   -6,424;17738,859; 0,30748
 369,29; 8765,485;   -4,182;17714,447; 0,30545
 369,88; 8664,496;   -5,879;17444,676; 0,30377
 370,47; 8554,205;   -4,667;17180,342; 0,30273
 371,06; 8521,086;   -6,394;17037,754; 0,30075
 371,65; 8501,850;   -5,515;16980,760; 0,30030
 372,24; 8451,302;   -4,121;16845,408; 0,29945
 372,83; 8384,465;   -5,424;16601,334; 0,29653
 373,42; 8311,133;   -4,667;16385,398; 0,29468
 374,01; 8258,766;   -5,636;16204,558; 0,29258
 374,60; 8271,678;   -4,879;16159,646; 0,29071
 375,19; 8309,416;   -4,061;16215,934; 0,29027
 375,78; 8361,691;   -4,818;16210,541; 0,28738
 376,37; 8381,099;   -5,606;16226,437; 0,28678
 376,96; 8554,117;   -5,273;16452,744; 0,28393
 377,55; 8771,783;   -4,970;16712,555; 0,27984
 378,14; 8996,923;   -4,939;17059,555; 0,27776
 378,73; 9237,812;   -6,152;17505,809; 0,27748
 379,32; 9485,944;   -5,848;17884,682; 0,27527
 379,91; 9334,479;   -4,818;17499,531; 0,27283
 380,50; 9288,922;   -6,879;17313,273; 0,27026
 381,09; 9212,131;   -4,939;17124,809; 0,26916
 381,68; 9088,008;   -5,515;16812,229; 0,26704
 382,27; 9181,250;   -6,485;16865,744; 0,26396
 382,86; 9209,529;   -5,030;16813,447; 0,26131
 383,45; 9105,673;   -5,182;16486,980; 0,25772
 384,04; 8972,934;   -5,182;16178,559; 0,25589
 384,63; 8754,256;   -4,970;15660,378; 0,25247
 385,22; 8611,131;   -6,152;15369,324; 0,25146
 385,81; 8742,256;   -4,394;15529,525; 0,24944
 386,40; 9019,750;   -5,909;15951,268; 0,24748
 386,99; 9366,556;   -5,545;16435,139; 0,24408
 387,58; 9622,039;   -4,152;16779,189; 0,24142
 388,17; 9883,067;   -7,091;17100,613; 0,23799
 388,76; 9984,297;   -4,485;17161,047; 0,23514
 389,35; 9737,888;   -4,727;16679,961; 0,23364
 389,94; 9678,524;   -7,000;16461,129; 0,23052
 390,53; 9809,880;   -4,818;16527,100; 0,22645
 391,12; 9985,411;   -4,455;16655,902; 0,22212
 391,71;10225,206;   -5,242;16988,684; 0,22040
 392,30;10717,600;   -4,485;17611,320; 0,21562
 392,89;11122,601;   -5,970;18105,008; 0,21150
 393,48;10771,732;   -4,848;17354,029; 0,20704
 394,07;10228,449;   -5,970;16420,346; 0,20548
 394,66;10112,240;   -5,515;16158,932; 0,20348
 395,25;10063,035;   -4,879;15997,500; 0,20125
 395,84;10021,736;   -5,394;15827,251; 0,19838
 396,43;10234,371;   -4,364;16012,033; 0,19432
 397,01;10573,534;   -5,576;16424,240; 0,19118
 397,60;11143,370;   -5,152;17184,297; 0,18804
 398,19;11766,390;   -4,061;18028,975; 0,18528
 398,78;11944,327;   -5,879;18131,316; 0,18119
 399,37;11383,832;   -5,667;17148,693; 0,17787
 399,96;10991,161;   -4,818;16437,654; 0,17473
 400,55;10782,521;   -6,061;16053,570; 0,17277
 401,14;10838,239;   -4,545;15977,273; 0,16849
 401,73;10570,780;   -4,970;15539,813; 0,16727
 402,32;10463,511;   -5,848;15318,416; 0,16546
 402,91;10473,615;   -4,727;15200,372; 0,16170
 403,49;10458,996;   -5,697;15107,580; 0,15963
 404,08;10457,021;   -4,970;15039,146; 0,15775
 404,67;10534,645;   -5,121;15059,177; 0,15512
 405,26;10638,697;   -5,606;15136,062; 0,15306
 405,85;10505,231;   -3,636;14817,405; 0,14932
 406,44;10058,823;   -6,455;14170,699; 0,14876
 407,03; 9920,813;   -3,212;13860,874; 0,14520
 407,62; 9970,554;   -4,818;13849,588; 0,14266
 408,20;10327,979;   -6,303;14254,025; 0,13985
 408,79;10611,220;   -5,091;14586,986; 0,13814
 409,38;10522,599;   -6,515;14341,995; 0,13441
 409,97;10388,750;   -3,879;14093,627; 0,13242
 410,56; 9976,037;   -4,970;13436,220; 0,12926
 411,15; 9685,917;   -5,545;13034,817; 0,12890
 411,73; 9487,039;   -5,303;12675,844; 0,12579
 412,32; 9381,355;   -6,121;12480,514; 0,12390
 412,91; 9343,051;   -6,152;12365,505; 0,12165
 413,50; 9266,129;   -3,697;12238,727; 0,12080
 414,09; 9118,842;   -5,485;11955,276; 0,11756
 414,68; 8957,551;   -4,788;11767,708; 0,11845
 415,26; 9035,112;   -5,727;11797,319; 0,11579
 415,85; 9250,473;   -4,788;12031,686; 0,11411
 416,44; 9642,355;   -4,455;12419,314; 0,10987
 417,03; 9785,098;   -5,818;12512,553; 0,10672
 417,62; 9973,958;   -4,879;12710,577; 0,10525
 418,21;10132,506;   -4,939;12844,743; 0,10296
 418,79;10360,096;   -5,909;13114,123; 0,10232
 419,38;10570,401;   -4,606;13328,973; 0,10067
 419,97;10829,712;   -4,970;13587,160; 0,09847
 420,56;11382,625;   -6,091;14257,639; 0,09776
 421,15;12159,763;   -3,758;15143,362; 0,09527
 421,73;12728,927;   -5,667;15750,949; 0,09248
 422,32;12132,233;   -5,121;14972,319; 0,09131
 422,91;11367,036;   -5,394;13976,903; 0,08973
 423,50;10904,814;   -6,970;13437,395; 0,09064
 424,08;10784,618;   -3,939;13281,537; 0,09041
 424,67;11006,175;   -5,788;13519,688; 0,08929
 425,26;11061,899;   -4,727;13500,306; 0,08648
 425,85;10655,388;   -4,545;12924,878; 0,08382
 426,43;10407,729;   -5,061;12634,305; 0,08416
 427,02;10524,570;   -4,606;12760,437; 0,08363
 427,61;10799,167;   -6,182;13040,170; 0,08185
 428,20;10945,129;   -6,182;13228,440; 0,08225
 428,79;11433,702;   -4,212;13751,210; 0,08013
 429,37;12610,343;   -5,788;15105,853; 0,07839
 429,96;13588,259;   -4,818;16193,287; 0,07615
 430,55;13354,885;   -5,848;15858,522; 0,07459
 431,13;12273,767;   -5,182;14524,723; 0,07310
 431,72;10858,065;   -4,030;12861,322; 0,07351
 432,31;10248,125;   -6,061;12141,188; 0,07358
 432,90;10426,086;   -5,333;12315,602; 0,07230
 433,48;11723,062;   -5,788;13847,555; 0,07230
 434,07;11904,987;   -6,121;13923,673; 0,06799
 434,66;10760,066;   -4,485;12658,483; 0,07054
 435,25;10695,765;   -5,818;12548,748; 0,06935
 435,83;10577,383;   -5,636;12428,772; 0,07002
 436,42;10908,881;   -5,273;12847,291; 0,07100
 437,01;10511,677;   -5,667;12371,472; 0,07071
 437,59;10195,614;   -5,485;12006,181; 0,07096
 438,18;10389,659;   -5,091;12227,947; 0,07072
 438,77;10516,097;   -5,939;12362,024; 0,07020
 439,35;10329,475;   -4,000;12093,466; 0,06845
 439,94;10119,185;   -5,485;11861,045; 0,06894
 440,53;10377,973;   -5,333;12206,495; 0,07045
 441,11;11657,610;   -4,939;13665,067; 0,06898
 441,70;11978,045;   -5,697;13934,633; 0,06568
 442,29;11498,644;   -5,182;13357,809; 0,06506
 442,87;11486,684;   -6,212;13399,979; 0,06688
 443,46;11860,292;   -6,818;13772,041; 0,06487
 444,05;11553,665;   -5,576;13304,632; 0,06126
 444,63;11240,232;   -5,667;12916,448; 0,06034
 445,22;11009,764;   -5,545;12658,921; 0,06059
 445,81;10743,112;   -5,697;12403,852; 0,06240
 446,39;11000,947;   -5,394;12720,424; 0,06304
 446,98;10619,769;   -4,515;12251,835; 0,06206
 447,57;10237,096;   -6,121;11837,534; 0,06305
 448,15; 9997,063;   -4,727;11558,184; 0,06299
 448,74;10179,757;   -5,606;11741,473; 0,06195
 449,33;10285,243;   -6,394;11825,070; 0,06055
 449,91;10219,693;   -4,091;11708,974; 0,05906
 450,50;10092,153;   -6,394;11548,819; 0,05852
 451,08; 9821,805;   -4,727;11201,131; 0,05704
 451,67; 9836,276;   -4,909;11290,479; 0,05985
 452,26; 9704,212;   -6,242;11084,650; 0,05773
 452,84; 9345,626;   -4,485;10674,388; 0,05771
 453,43; 8894,021;   -5,091;10184,670; 0,05882
 454,02; 8779,599;   -5,152;10056,752; 0,05895
 454,60; 8811,579;   -5,333;10055,630; 0,05732
 455,19; 9291,790;   -5,758;10571,682; 0,05601
 455,77; 9013,822;   -4,333;10258,673; 0,05616
 456,36; 8615,455;   -5,303; 9837,481; 0,05757
 456,95; 8802,689;   -6,091;10056,735; 0,05780
 457,53; 9189,523;   -4,182;10487,891; 0,05737
 458,12; 9251,189;   -5,485;10517,350; 0,05568
 458,70; 9266,583;   -4,939;10509,094; 0,05462
 459,29; 9400,229;   -6,091;10617,785; 0,05286
 459,87; 9554,868;   -5,636;10767,331; 0,05185
 460,46; 9328,214;   -4,061;10556,504; 0,05370
 461,05; 9377,323;   -5,758;10609,357; 0,05358
 461,63; 8530,992;   -5,818; 9624,981; 0,05237
 462,22; 7835,837;   -4,667; 8860,002; 0,05332
 462,80; 7868,002;   -6,333; 8875,638; 0,05230
 463,39; 8358,685;   -4,788; 9448,114; 0,05318
 463,97; 8509,625;   -5,030; 9562,907; 0,05065
 464,56; 8958,746;   -5,061;10088,184; 0,05154
 465,14; 9516,635;   -4,515;10695,433; 0,05069
 465,73; 9977,704;   -6,152;11186,657; 0,04964
 466,31; 8948,438;   -7,000;10015,117; 0,04887
 466,90; 7922,397;   -5,212; 8884,829; 0,04976
 467,49; 7545,491;   -6,242; 8484,448; 0,05090
 468,07; 7519,548;   -4,576; 8435,620; 0,04990
 468,66; 7171,759;   -5,091; 8036,369; 0,04940
 469,24; 6913,944;   -5,152; 7760,184; 0,05011
 469,83; 6644,291;   -3,606; 7464,019; 0,05050
 470,41; 6566,458;   -5,758; 7377,859; 0,05056
 471,00; 6466,956;   -5,758; 7277,075; 0,05121
 471,58; 6541,003;   -5,000; 7350,543; 0,05064
 472,17; 6665,229;   -6,606; 7518,447; 0,05226
 472,75; 6826,613;   -5,000; 7708,415; 0,05272
 473,34; 7089,364;   -5,424; 7992,360; 0,05203
 473,92; 7090,611;   -4,848; 7980,396; 0,05131
 474,51; 7175,886;   -5,545; 8061,034; 0,05048
 475,09; 7727,761;   -6,455; 8628,452; 0,04784
 475,68; 7399,077;   -3,970; 8244,654; 0,04697
 476,26; 7043,504;   -5,727; 7853,106; 0,04722
 476,85; 6800,972;   -5,758; 7578,681; 0,04698
 477,43; 6685,679;   -5,212; 7490,796; 0,04935
 478,01; 7161,716;   -6,000; 7967,517; 0,04627
 478,60; 6915,938;   -4,152; 7698,961; 0,04655
 479,18; 6919,184;   -5,545; 7724,396; 0,04777
 479,77; 7244,412;   -6,364; 8115,915; 0,04929
 480,35; 7512,114;   -4,424; 8384,506; 0,04769
 480,94; 7224,762;   -5,758; 8047,734; 0,04681
 481,52; 7651,913;   -5,636; 8505,374; 0,04589
 482,11; 7427,278;   -4,606; 8216,500; 0,04383
 482,69; 6820,463;   -5,909; 7561,709; 0,04477
 483,27; 6841,748;   -4,515; 7570,262; 0,04392
 483,86; 7124,883;   -4,152; 7867,518; 0,04304
 484,44; 7970,410;   -4,061; 8819,759; 0,04395
 485,03;11454,683;   -5,000;12751,516; 0,04656
 485,61;26134,350;   -6,697;28687,580; 0,04047
 486,20;23621,574;   -5,061;24990,580; 0,02446
 486,78;11210,604;   -5,000;12128,614; 0,03417
 487,36; 8395,517;   -5,273; 9202,325; 0,03983
 487,95; 6804,588;   -4,576; 7517,190; 0,04323
 488,53; 6414,120;   -5,303; 7118,489; 0,04522
 489,12; 6296,744;   -4,970; 6983,590; 0,04493
 489,70; 5980,647;   -5,121; 6635,834; 0,04511
 490,28; 5806,007;   -6,242; 6454,733; 0,04595
 490,87; 5964,628;   -4,485; 6650,469; 0,04724
 491,45; 5985,914;   -5,091; 6636,780; 0,04479
 492,04; 6003,244;   -3,970; 6657,160; 0,04487
 492,62; 6013,619;   -4,909; 6670,630; 0,04500
 493,20; 6071,956;   -5,909; 6727,368; 0,04448
 493,79; 6157,228;   -4,636; 6804,106; 0,04335
 494,37; 6265,724;   -4,515; 6932,590; 0,04389
 494,95; 5958,777;   -5,939; 6579,755; 0,04301
 495,54; 6031,139;   -3,606; 6652,330; 0,04255
 496,12; 6945,464;   -6,000; 7621,196; 0,04029
 496,71; 6626,062;   -4,364; 7225,929; 0,03761
 497,29; 5722,663;   -5,788; 6280,190; 0,04034
 497,87; 5503,351;   -4,727; 6046,198; 0,04082
 498,46; 5643,729;   -4,485; 6214,221; 0,04179
 499,04; 5917,656;   -5,485; 6525,220; 0,04241
 499,62; 6282,396;   -4,879; 6903,389; 0,04091
 500,21; 5939,156;   -4,636; 6527,794; 0,04101
 500,79; 6012,373;   -6,667; 6624,443; 0,04206
 501,37; 6367,340;   -4,788; 7008,106; 0,04161
 501,96; 6313,756;   -5,818; 6946,235; 0,04143
 502,54; 6311,771;   -5,970; 6976,991; 0,04348
 503,12; 6310,112;   -4,182; 6962,553; 0,04270
 503,71; 6115,654;   -5,515; 6748,654; 0,04274
 504,29; 5857,930;   -4,061; 6470,465; 0,04316
 504,87; 5826,972;   -5,485; 6435,936; 0,04313
 505,45; 5747,730;   -5,394; 6346,907; 0,04303
 506,04; 5867,912;   -4,212; 6506,541; 0,04484
 506,62; 5843,532;   -5,818; 6413,725; 0,04040
 507,20; 5368,640;   -4,273; 5904,914; 0,04132
 507,79; 5626,114;   -4,394; 6166,952; 0,03983
 508,37; 5634,648;   -6,515; 6190,467; 0,04081
 508,95; 5366,252;   -4,182; 5883,719; 0,03995
 509,53; 5255,739;   -5,758; 5780,690; 0,04130
 510,12; 5309,832;   -5,455; 5845,132; 0,04167
 510,70; 5188,176;   -4,485; 5718,737; 0,04225
 511,28; 5021,375;   -4,636; 5580,539; 0,04581
 511,87; 4790,206;   -5,152; 5281,529; 0,04236
 512,45; 4750,227;   -4,848; 5267,417; 0,04484
 513,03; 4865,983;   -6,000; 5342,092; 0,04049
 513,61; 4705,204;   -3,667; 5165,246; 0,04048
 514,20; 4623,985;   -5,242; 5116,625; 0,04392
 514,78; 4408,974;   -4,242; 4842,428; 0,04069
 515,36; 4321,731;   -4,909; 4761,324; 0,04202
 515,94; 4570,226;   -5,727; 5010,570; 0,03990
 516,52; 4639,494;   -4,485; 5092,746; 0,04044
 517,11; 4454,319;   -4,939; 4905,965; 0,04190
 517,69; 4270,804;   -5,152; 4694,437; 0,04103
 518,27; 4256,408;   -4,576; 4701,354; 0,04314
 518,85; 4538,257;   -5,636; 4979,663; 0,04026
 519,44; 4451,114;   -4,485; 4869,937; 0,03902
 520,02; 4098,422;   -5,576; 4489,636; 0,03954
 520,60; 4021,058;   -5,545; 4433,973; 0,04240
 521,18; 4153,684;   -4,455; 4592,701; 0,04359
 521,76; 4067,281;   -4,727; 4498,218; 0,04369
 522,35; 4178,082;   -5,697; 4619,808; 0,04359
 522,93; 4325,281;   -4,818; 4741,683; 0,03988
 523,51; 4434,565;   -6,152; 4861,846; 0,03990
 524,09; 4559,503;   -3,788; 4985,036; 0,03872
 524,67; 4434,236;   -4,848; 4866,705; 0,04037
 525,26; 4410,724;   -4,667; 4854,217; 0,04157
 525,84; 4542,857;   -4,727; 5002,999; 0,04186
 526,42; 4614,180;   -5,455; 5073,356; 0,04115
 527,00; 4709,493;   -5,152; 5156,852; 0,03937
 527,58; 4699,283;   -6,121; 5171,476; 0,04153
 528,16; 4942,923;   -5,697; 5457,677; 0,04298
 528,75; 5387,457;   -4,788; 5910,063; 0,04017
 529,33; 5246,977;   -5,394; 5768,247; 0,04109
 529,91; 5096,457;   -4,121; 5610,063; 0,04167
 530,49; 5079,945;   -5,121; 5568,921; 0,03987
 531,07; 5057,205;   -5,152; 5544,900; 0,03994
 531,65; 5128,575;   -4,455; 5583,379; 0,03687
 532,23; 5083,456;   -5,303; 5551,761; 0,03823
 532,82; 5374,043;   -4,576; 5894,028; 0,04008
 533,40; 5554,238;   -3,455; 6074,686; 0,03888
 533,98; 5485,773;   -5,939; 6009,150; 0,03953
 534,56; 5452,481;   -5,333; 5959,361; 0,03857
 535,14; 5365,002;   -5,424; 5866,025; 0,03874
 535,72; 5127,064;   -4,758; 5569,849; 0,03594
 536,30; 4834,912;   -4,788; 5284,052; 0,03854
 536,88; 4786,539;   -6,364; 5255,604; 0,04055
 537,47; 5061,460;   -5,636; 5564,564; 0,04111
 538,05; 5266,072;   -4,667; 5790,950; 0,04123
 538,63; 5347,723;   -5,909; 5842,453; 0,03839
 539,21; 5369,755;   -5,636; 5853,445; 0,03742
 539,79; 5246,868;   -6,303; 5719,156; 0,03739
 540,37; 5268,565;   -4,818; 5753,624; 0,03822
 540,95; 5494,783;   -4,121; 6028,895; 0,04026
 541,53; 5495,334;   -5,970; 5982,741; 0,03687
 542,11; 5505,011;   -4,970; 6000,778; 0,03742
 542,69; 5518,904;   -5,394; 6016,197; 0,03743
 543,27; 5604,785;   -5,303; 6068,401; 0,03448
 543,85; 5767,574;   -5,061; 6253,441; 0,03510
 544,44; 5784,296;   -5,515; 6258,250; 0,03417
 545,02; 5775,171;   -3,758; 6217,257; 0,03201
 545,60; 5481,365;   -5,000; 5953,966; 0,03589
 546,18; 5497,933;   -4,273; 5983,708; 0,03674
 546,76; 5751,213;   -5,576; 6271,801; 0,03760
 547,34; 6191,892;   -5,515; 6745,473; 0,03716
 547,92; 6504,594;   -5,121; 7049,979; 0,03494
 548,50; 6137,532;   -5,182; 6688,533; 0,03731
 549,08; 5847,834;   -5,242; 6391,517; 0,03858
 549,66; 5979,056;   -4,485; 6517,558; 0,03743
 550,24; 6129,877;   -5,455; 6685,144; 0,03763
 550,82; 6189,892;   -4,697; 6755,775; 0,03796
 551,40; 6576,510;   -4,455; 7197,406; 0,03916
 551,98; 7179,134;   -6,152; 7815,806; 0,03687
 552,56; 7120,745;   -5,242; 7760,535; 0,03734
 553,14; 7113,490;   -5,848; 7792,908; 0,03959
 553,72; 7212,775;   -5,303; 7871,370; 0,03792
 554,30; 7212,832;   -3,455; 7859,031; 0,03725
 554,88; 7547,129;   -5,939; 8189,663; 0,03546
 555,46; 7918,550;   -4,212; 8552,458; 0,03343
 556,04; 7953,448;   -4,333; 8614,532; 0,03466
 556,62; 7788,059;   -6,030; 8446,080; 0,03520
 557,20; 7906,488;   -5,303; 8521,903; 0,03253
 557,78; 7990,402;   -4,061; 8631,026; 0,03348
 558,36; 7908,464;   -4,636; 8539,806; 0,03334
 558,94; 8005,553;   -3,818; 8629,684; 0,03259
 559,52; 8281,972;   -6,424; 8942,527; 0,03330
 560,10; 8682,195;   -4,394; 9351,815; 0,03225
 560,68; 8864,086;   -4,485; 9526,265; 0,03127
 561,26; 8792,303;   -5,697; 9461,938; 0,03186
 561,84; 8672,972;   -4,364; 9321,467; 0,03130
 562,42; 8749,166;   -5,758; 9410,110; 0,03161
 563,00; 8940,057;   -4,182; 9668,105; 0,03399
 563,58; 9218,186;   -4,000; 9915,580; 0,03166
 564,15; 9349,037;   -5,515;10085,516; 0,03291
 564,73; 9452,713;   -4,182;10185,103; 0,03240
 565,31; 9576,809;   -5,545;10257,649; 0,02981
 565,89; 9808,548;   -5,030;10494,672; 0,02935
 566,47; 9978,565;   -4,242;10674,096; 0,02925
 567,05;10490,251;   -6,152;11213,746; 0,02895
 567,63;10695,190;   -4,091;11486,184; 0,03098
 568,21;11061,333;   -4,182;11896,856; 0,03161
 568,79;11652,491;   -5,242;12506,308; 0,03070
 569,37;12484,540;   -5,485;13442,838; 0,03210
 569,95;12999,043;   -6,030;13958,951; 0,03093
 570,53;13399,276;   -4,606;14329,724; 0,02915
 571,10;13764,986;   -5,212;14724,247; 0,02925
 571,68;14015,104;   -6,455;14900,506; 0,02659
 572,26;13137,256;   -4,606;13986,766; 0,02720
 572,84;13692,732;   -5,636;14644,430; 0,02917
 573,42;14780,352;   -5,182;15695,464; 0,02608
 574,00;15451,175;   -5,455;16424,994; 0,02653
 574,58;15387,813;   -6,242;16348,328; 0,02629
 575,16;14649,030;   -4,818;15421,337; 0,02231
 575,73;14072,274;   -5,545;14916,434; 0,02529
 576,31;15221,794;   -5,606;16167,954; 0,02618
 576,89;15922,019;   -5,000;16857,217; 0,02478
 577,47;17533,383;   -5,485;18604,711; 0,02575
 578,05;16889,143;   -4,879;18007,430; 0,02784
 578,63;14978,178;   -5,212;15988,402; 0,02834
 579,21;14672,553;   -5,333;15753,596; 0,03086
 579,78;15206,437;   -3,758;16300,783; 0,03017
 580,36;15766,164;   -6,091;16786,313; 0,02722
 580,94;17543,621;   -5,121;18796,049; 0,02994
 581,52;18584,857;   -5,667;19851,605; 0,02863
 582,10;17141,633;   -5,970;18280,510; 0,02793
 582,67;15429,381;   -4,030;16547,387; 0,03037
 583,25;14590,687;   -5,697;15692,981; 0,03162
 583,83;14859,684;   -6,061;15899,872; 0,02937
 584,41;15687,520;   -4,394;16775,141; 0,02910
 584,99;16570,500;   -5,455;17609,703; 0,02641
 585,57;16178,232;   -4,364;17032,947; 0,02235
 586,14;15449,036;   -4,424;16382,419; 0,02547
 586,72;15761,658;   -5,121;16748,680; 0,02637
 587,30;16043,997;   -3,636;16955,303; 0,02399
 587,88;15619,791;   -5,242;16590,160; 0,02617
 588,45;15455,146;   -5,758;16430,662; 0,02657
 589,03;15369,340;   -4,909;16267,960; 0,02467
 589,61;15505,500;   -5,970;16469,350; 0,02618
 590,19;15438,467;   -4,970;16514,789; 0,02926
 590,77;15398,150;   -4,970;16400,396; 0,02738
 591,34;15556,921;   -5,455;16571,963; 0,02744
 591,92;15757,004;   -4,242;16830,289; 0,02861
 592,50;16403,004;   -4,939;17390,303; 0,02538
 593,08;16535,842;   -4,515;17551,139; 0,02587
 593,65;16360,849;   -3,848;17454,371; 0,02809
 594,23;16325,605;   -5,606;17362,436; 0,02673
 594,81;16623,365;   -3,879;17700,297; 0,02726
 595,39;16620,641;   -4,758;17842,512; 0,03080
 595,96;16543,594;   -5,545;17860,293; 0,03325
 596,54;16619,598;   -4,515;17981,330; 0,03419
 597,12;16734,656;   -5,061;18201,018; 0,03647
 597,69;16817,975;   -3,545;18149,619; 0,03309
 598,27;17116,238;   -5,515;18332,211; 0,02980
 598,85;17344,625;   -5,394;18554,064; 0,02927
 599,43;17286,490;   -4,455;18360,705; 0,02618
 600,00;17441,553;   -5,758;18321,473; 0,02137
 600,58;17359,244;   -5,000;18269,332; 0,02219
 601,16;17292,918;   -4,576;18273,998; 0,02396
 601,73;17291,590;   -7,061;18285,307; 0,02426
 602,31;17327,844;   -5,515;18438,803; 0,02698
 602,89;17374,170;   -6,121;18628,266; 0,03026
 603,46;17440,600;   -5,879;18674,643; 0,02968
 604,04;17416,971;   -4,970;18740,787; 0,03181
 604,62;17417,408;   -5,758;18820,254; 0,03363
 605,19;17631,527;   -3,727;18858,467; 0,02921
 605,77;17826,217;   -5,030;18922,387; 0,02591
 606,35;17799,154;   -4,758;18936,979; 0,02690
 606,92;17851,006;   -4,545;19000,486; 0,02710
 607,50;17916,564;   -5,970;19076,127; 0,02723
 608,08;17823,740;   -4,970;19192,008; 0,03211
 608,65;17868,490;   -5,939;19269,902; 0,03278
 609,23;17987,170;   -5,758;19235,434; 0,02913
 609,81;18169,699;   -4,030;19397,252; 0,02839
 610,38;18093,037;   -5,273;19314,330; 0,02836
 610,96;18235,881;   -4,818;19250,225; 0,02350
 611,54;18314,814;   -4,485;19323,098; 0,02327
 612,11;18263,084;   -5,788;19401,492; 0,02625
 612,69;18298,549;   -3,667;19467,867; 0,02690
 613,26;18373,725;   -5,727;19436,730; 0,02442
 613,84;18318,824;   -5,061;19484,270; 0,02678
 614,42;18251,645;   -4,727;19546,770; 0,02977
 614,99;18347,945;   -6,061;19489,080; 0,02620
 615,57;18279,475;   -4,606;19456,301; 0,02709
 616,14;18205,250;   -4,909;19463,746; 0,02902
 616,72;18273,070;   -6,152;19460,467; 0,02733
 617,30;18369,736;   -4,152;19553,648; 0,02712
 617,87;18282,369;   -6,121;19619,625; 0,03065
 618,45;18151,557;   -4,879;19455,895; 0,03013
 619,02;18222,084;   -4,333;19358,020; 0,02626
 619,60;18371,469;   -5,242;19490,967; 0,02568
 620,17;18331,857;   -5,061;19478,631; 0,02634
 620,75;18256,713;   -5,515;19216,953; 0,02226
 621,33;18422,389;   -6,242;19337,406; 0,02105
 621,90;18453,680;   -4,091;19511,727; 0,02421
 622,48;18581,422;   -6,424;19511,424; 0,02120
 623,05;18717,471;   -4,212;19571,775; 0,01938
 623,63;18619,119;   -5,545;19633,559; 0,02303
 624,20;18676,451;   -5,303;19763,428; 0,02456
 624,78;18783,863;   -4,515;19732,754; 0,02140
 625,35;18851,875;   -6,242;19877,125; 0,02299
 625,93;18859,908;   -6,152;20067,949; 0,02695
 626,50;18969,680;   -5,121;20141,879; 0,02603
 627,08;19120,379;   -4,879;20242,971; 0,02477
 627,66;19045,072;   -4,212;20373,377; 0,02927
 628,23;19052,227;   -5,121;20484,793; 0,03148
 628,81;19297,152;   -4,242;20576,984; 0,02788
 629,38;19466,787;   -4,394;20680,590; 0,02626
 629,96;19522,514;   -5,636;20797,857; 0,02748
 630,53;19685,318;   -3,848;20782,160; 0,02354
 631,11;19914,098;   -6,152;20765,320; 0,01817
 631,68;20007,445;   -6,242;20943,930; 0,01986
 632,26;20006,330;   -4,333;21020,730; 0,02148
 632,83;20123,973;   -4,727;21156,941; 0,02173
 633,40;20196,277;   -4,030;21367,379; 0,02448
 633,98;20213,520;   -4,788;21582,703; 0,02846
 634,55;20352,590;   -5,545;21686,615; 0,02756
 635,13;20547,709;   -2,970;21689,611; 0,02349
 635,70;20582,551;   -6,394;21856,994; 0,02608
 636,28;20620,701;   -4,788;21974,457; 0,02761
 636,85;20750,008;   -3,879;21929,592; 0,02401
 637,43;20862,279;   -5,182;21937,402; 0,02182
 638,00;20883,217;   -4,152;22127,703; 0,02513
 638,58;20905,506;   -5,727;22239,189; 0,02685
 639,15;20999,309;   -5,030;22244,012; 0,02500
 639,73;20937,699;   -3,697;22423,365; 0,02977
 640,30;20867,012;   -4,576;22581,023; 0,03428
 640,87;20938,357;   -3,394;22524,439; 0,03171
 641,45;21039,551;   -5,333;22490,006; 0,02895
 642,02;20985,047;   -4,182;22491,727; 0,03011
 642,60;20929,514;   -4,909;22446,264; 0,03038
 643,17;21019,557;   -5,212;22375,527; 0,02714
 643,74;21038,963;   -4,333;22346,975; 0,02619
 644,32;21019,580;   -5,182;22491,391; 0,02939
 644,89;21075,441;   -6,333;22516,836; 0,02872
 645,47;21166,029;   -4,091;22475,344; 0,02606
 646,04;21117,646;   -5,061;22569,215; 0,02886
 646,61;21063,205;   -5,455;22743,934; 0,03333
 647,19;21155,641;   -3,879;22724,957; 0,03107
 647,76;21352,076;   -5,970;22693,797; 0,02646
 648,34;21438,604;   -5,091;22840,152; 0,02750
 648,91;21419,646;   -5,091;22889,629; 0,02882
 649,48;21568,021;   -5,970;22854,439; 0,02515
 650,06;21703,154;   -4,091;22828,674; 0,02195
 650,63;21727,621;   -4,485;22976,695; 0,02427
 651,20;21758,906;   -3,667;23076,535; 0,02553
 651,78;21975,918;   -4,848;23084,527; 0,02137
 652,35;22041,566;   -6,000;23176,762; 0,02180
 652,92;21989,699;   -3,727;23402,270; 0,02703
 653,50;21966,531;   -5,636;23551,352; 0,03025
 654,07;22135,693;   -5,212;23569,314; 0,02725
 654,64;22763,797;   -4,515;24251,094; 0,02748
 655,22;27339,658;   -6,727;29578,723; 0,03418
 655,79;38136,762;   -3,818;40383,926; 0,02486
 656,36;28326,137;   -5,394;29571,584; 0,01868
 656,94;23679,299;   -6,182;25015,305; 0,02383
 657,51;23117,463;   -4,212;24562,418; 0,02633
 658,08;23197,777;   -5,818;24463,834; 0,02307
 658,66;23321,396;   -3,606;24321,340; 0,01823
 659,23;23267,621;   -5,030;24433,363; 0,02123
 659,80;23171,572;   -6,182;24625,445; 0,02642
 660,38;23299,947;   -4,273;24689,406; 0,02515
 660,95;23469,748;   -4,909;24794,127; 0,02384
 661,52;23495,457;   -4,667;24975,846; 0,02653
 662,09;23462,590;   -3,788;25144,475; 0,03006
 662,67;23519,541;   -5,545;25120,344; 0,02859
 663,24;23584,311;   -5,030;25086,033; 0,02680
 663,81;23515,414;   -4,576;25171,662; 0,02955
 664,39;23442,305;   -4,242;25218,836; 0,03172
 664,96;23541,922;   -5,212;25157,707; 0,02882
 665,53;23661,965;   -5,182;25066,092; 0,02503
 666,10;23623,037;   -4,273;25097,750; 0,02629
 666,68;23560,867;   -4,394;25084,924; 0,02722
 667,25;23697,668;   -5,970;24958,189; 0,02250
 667,82;23803,256;   -3,394;24775,514; 0,01738
 668,39;23787,691;   -5,273;24879,809; 0,01949
 668,96;23798,006;   -5,515;24955,346; 0,02062
 669,54;23922,352;   -4,697;24866,066; 0,01680
 670,11;23919,000;   -6,152;24798,998; 0,01569
 670,68;23712,256;   -5,152;24925,141; 0,02166
 671,25;23651,449;   -5,242;25054,133; 0,02502
 671,83;23720,945;   -4,697;24982,457; 0,02250
 672,40;23795,896;   -4,485;24895,328; 0,01961
 672,97;23683,666;   -5,909;25004,775; 0,02357
 673,54;23677,709;   -4,394;25227,797; 0,02753
 674,11;23769,902;   -3,758;25217,334; 0,02567
 674,69;23874,098;   -5,303;25238,387; 0,02413
 675,26;23841,199;   -4,303;25379,834; 0,02716
 675,83;23772,334;   -5,091;25430,432; 0,02928
 676,40;23812,406;   -4,121;25297,182; 0,02626
 676,97;23921,629;   -4,909;25203,082; 0,02266
 677,54;23938,096;   -5,000;25344,014; 0,02478
 678,12;23891,109;   -3,606;25454,461; 0,02752
 678,69;23920,121;   -5,182;25332,391; 0,02491
 679,26;24053,344;   -4,697;25114,746; 0,01875
 679,83;24038,297;   -3,636;25089,375; 0,01858
 680,40;23979,430;   -6,000;25176,852; 0,02116
 680,97;24011,441;   -4,970;25187,238; 0,02076
 681,55;24144,514;   -5,485;25102,928; 0,01690
 682,12;24130,557;   -5,697;25183,162; 0,01854
 682,69;24054,721;   -4,091;25321,760; 0,02229
 683,26;24120,246;   -4,970;25340,357; 0,02143
 683,83;24251,713;   -4,727;25288,742; 0,01818
 684,40;24302,787;   -4,727;25423,705; 0,01958
 684,97;24344,859;   -5,758;25676,545; 0,02312
 685,54;24434,719;   -4,848;25810,689; 0,02379
 686,12;24628,156;   -5,273;25840,498; 0,02086
 686,69;24715,773;   -4,606;25916,430; 0,02060
 687,26;24640,150;   -4,636;26165,301; 0,02608
 687,83;24575,344;   -5,727;26219,688; 0,02812
 688,40;24729,082;   -4,970;26179,225; 0,02474
 688,97;24882,670;   -4,879;26232,943; 0,02295
 689,54;24960,531;   -5,212;26407,541; 0,02447
 690,11;24953,574;   -3,606;26605,807; 0,02784
 690,68;25157,918;   -6,303;26696,586; 0,02577
 691,25;25343,598;   -4,091;26720,275; 0,02297
 691,82;25274,488;   -4,727;26767,176; 0,02492
 692,40;25160,045;   -5,576;26859,805; 0,02839
 692,97;25155,270;   -3,606;26773,734; 0,02708
 693,54;25151,281;   -5,121;26485,969; 0,02245
 694,11;25141,506;   -5,394;26385,416; 0,02097
 694,68;25030,760;   -4,697;26370,863; 0,02265
 695,25;25064,621;   -5,667;26398,490; 0,02251
 695,82;25291,543;   -3,515;26294,059; 0,01688
 696,39;25353,131;   -4,788;26196,535; 0,01421
 696,96;25314,627;   -5,485;26397,193; 0,01818
 697,53;25183,305;   -4,303;26508,459; 0,02227
 698,10;25162,197;   -5,636;26399,359; 0,02084
 698,67;25207,541;   -3,818;26253,686; 0,01766
 699,24;25077,645;   -5,242;26240,404; 0,01968
 699,81;24906,051;   -6,000;26321,760; 0,02400
 700,38;24901,820;   -3,758;26244,994; 0,02281
 700,95;25109,377;   -5,697;26054,713; 0,01605
 701,52;25186,996;   -5,485;26031,676; 0,01432
 702,09;25108,916;   -5,152;26133,576; 0,01737
 702,66;25057,898;   -6,061;26194,508; 0,01926
 703,23;25106,002;   -4,030;26073,074; 0,01641
 703,80;25169,316;   -5,303;26001,188; 0,01412
 704,37;25052,359;   -5,515;26091,604; 0,01765
 704,94;24887,613;   -3,182;26162,596; 0,02169
 705,51;24866,746;   -5,727;26120,193; 0,02135
 706,08;25031,063;   -3,788;26024,004; 0,01689
 706,65;25047,832;   -5,273;26031,936; 0,01673
 707,22;24853,025;   -5,303;26056,715; 0,02054
 707,79;24752,037;   -4,212;25933,859; 0,02025
 708,36;24840,352;   -5,364;25691,912; 0,01464
 708,93;24888,637;   -4,364;25515,873; 0,01081
 709,50;24788,074;   -5,091;25589,684; 0,01382
 710,06;24693,086;   -6,152;25698,068; 0,01732
 710,63;24741,461;   -4,727;25666,121; 0,01593
 711,20;24750,654;   -5,485;25521,658; 0,01332
 711,77;24597,545;   -4,606;25524,682; 0,01607
 712,34;24348,467;   -4,606;25640,400; 0,02245
 712,91;24326,055;   -5,818;25725,090; 0,02428
 713,48;24490,885;   -4,758;25671,293; 0,02044
 714,05;24585,988;   -5,364;25592,951; 0,01743
 714,62;24364,000;   -5,273;25563,217; 0,02086
 715,19;24084,072;   -4,121;25594,270; 0,02641
 715,76;24030,994;   -4,970;25501,928; 0,02580
 716,33;24168,611;   -5,333;25345,980; 0,02065
 716,89;24280,623;   -4,606;25262,123; 0,01721
 717,46;24268,666;   -6,000;25371,207; 0,01929
 718,03;24271,920;   -3,879;25489,381; 0,02125
 718,60;24315,023;   -5,758;25445,068; 0,01972
 719,17;24463,732;   -5,424;25431,455; 0,01684
 719,74;24493,168;   -4,394;25471,689; 0,01701
 720,31;24364,908;   -5,727;25634,803; 0,02206
 720,88;24371,072;   -4,061;25641,006; 0,02206
 721,44;24425,295;   -3,727;25460,393; 0,01802
 722,01;24488,066;   -5,667;25399,111; 0,01586
 722,58;24427,289;   -3,970;25493,225; 0,01855
 723,15;24327,998;   -5,576;25673,580; 0,02337
 723,72;24343,828;   -5,061;25742,027; 0,02425
 724,29;24437,174;   -4,152;25622,170; 0,02056
 724,85;24496,883;   -5,455;25574,465; 0,01869
 725,42;24412,381;   -3,606;25652,912; 0,02152
 725,99;24362,029;   -5,848;25714,297; 0,02346
 726,56;24432,889;   -5,909;25629,381; 0,02076
 727,13;24465,537;   -4,424;25432,797; 0,01684
 727,69;24479,459;   -4,970;25455,455; 0,01698
 728,26;24366,471;   -5,061;25630,053; 0,02195
 728,83;24380,846;   -4,242;25695,137; 0,02280
 729,40;24446,646;   -5,758;25525,674; 0,01875
 729,97;24532,416;   -4,424;25444,635; 0,01585
 730,53;24538,549;   -4,939;25558,809; 0,01769
 731,10;24355,197;   -4,242;25641,559; 0,02235
 731,67;24258,059;   -4,939;25624,248; 0,02379
 732,24;24316,949;   -5,788;25475,693; 0,02021
 732,81;24444,900;   -4,212;25409,383; 0,01680
 733,37;24409,125;   -5,333;25520,072; 0,01933
 733,94;24340,834;   -5,242;25728,518; 0,02407
 734,51;24374,361;   -3,485;25612,934; 0,02152
 735,08;24591,584;   -5,939;25449,229; 0,01488
 735,64;24756,627;   -4,424;25410,100; 0,01131
 736,21;24665,002;   -4,788;25477,607; 0,01407
 736,78;24507,105;   -5,485;25631,113; 0,01947
 737,35;24504,359;   -4,727;25672,471; 0,02022
 737,91;24613,555;   -5,061;25549,250; 0,01620
 738,48;24565,748;   -4,242;25426,756; 0,01496
 739,05;24360,760;   -4,727;25519,264; 0,02017
 739,61;24089,500;   -5,364;25504,498; 0,02478
 740,18;24039,178;   -4,485;25395,945; 0,02384
 740,75;24162,918;   -4,515;25201,906; 0,01828
 741,32;24176,322;   -5,273;25078,535; 0,01591
 741,88;24096,275;   -4,727;25202,770; 0,01949
 742,45;24074,195;   -5,212;25360,883; 0,02261
 743,02;24051,238;   -4,091;25224,389; 0,02068
 743,58;24106,523;   -5,424;25039,291; 0,01648
 744,15;24119,475;   -5,424;24979,797; 0,01522
 744,72;23953,607;   -4,636;25049,213; 0,01942
 745,28;23819,225;   -5,333;24997,176; 0,02096
 745,85;23876,541;   -4,091;24856,742; 0,01747
 746,42;23982,068;   -5,121;24686,584; 0,01257
 746,98;24005,596;   -5,091;24682,424; 0,01207
 747,55;23854,123;   -3,394;24691,598; 0,01498
 748,12;23674,648;   -5,576;24775,195; 0,01973
 748,68;23681,813;   -4,727;24785,277; 0,01977
 749,25;23802,311;   -3,667;24694,725; 0,01598
 749,82;23699,775;   -5,697;24673,746; 0,01749
 750,38;23431,637;   -5,000;24734,314; 0,02349
 750,95;23220,770;   -5,545;24850,186; 0,02945
 751,52;23274,268;   -5,182;24903,783; 0,02938
 752,08;23395,127;   -4,273;24757,139; 0,02457
 752,65;23430,867;   -4,727;24708,404; 0,02305
 753,21;23376,031;   -4,303;24839,334; 0,02636
 753,78;23309,982;   -3,848;24957,055; 0,02965
 754,35;23375,570;   -5,455;24892,137; 0,02729
 754,91;23546,977;   -5,606;24727,523; 0,02124
 755,48;23637,139;   -5,091;24592,090; 0,01720
 756,04;23496,545;   -4,879;24613,719; 0,02017
 756,61;23359,104;   -4,879;24719,832; 0,02458
 757,18;23453,326;   -4,970;24739,461; 0,02318
 757,74;23570,611;   -4,212;24513,604; 0,01703
 758,31;23571,170;   -5,545;24234,596; 0,01205
 758,87;23627,666;   -6,091;24403,164; 0,01402
 759,44;23605,588;   -3,818;24627,701; 0,01841
 760,00;23580,236;   -4,727;24731,904; 0,02071
 760,57;23653,822;   -3,455;24616,988; 0,01733
 761,14;23551,289;   -4,939;24452,070; 0,01630
 761,70;23400,666;   -5,727;24388,881; 0,01796
 762,27;23328,707;   -3,939;24565,297; 0,02243
 762,83;23374,145;   -6,030;24643,805; 0,02297
 763,40;23613,369;   -4,939;24601,795; 0,01781
 763,96;23822,773;   -5,000;24494,150; 0,01207
 764,53;23916,877;   -5,818;24563,689; 0,01159
 765,09;23677,707;   -2,939;24553,832; 0,01578
 765,66;23463,992;   -6,364;24578,854; 0,02015
 766,22;23451,307;   -5,667;24466,332; 0,01840
 766,79;23522,563;   -4,818;24267,293; 0,01353
 767,35;23522,422;   -5,394;24168,648; 0,01177
 767,92;23471,768;   -4,121;24272,520; 0,01457
 768,48;23403,992;   -5,727;24479,754; 0,01951
 769,05;23293,004;   -5,061;24373,504; 0,01969
 769,61;23413,742;   -3,182;24308,768; 0,01629
 770,18;23601,574;   -5,848;24308,578; 0,01282
 770,74;23619,283;   -4,152;24367,328; 0,01354
 771,31;23492,900;   -4,364;24491,350; 0,01807
 771,87;23456,367;   -5,242;24515,492; 0,01918
 772,44;23657,166;   -3,788;24454,879; 0,01440
 773,00;23802,270;   -4,909;24336,205; 0,00963
 773,57;23812,857;   -4,242;24352,984; 0,00974
 774,13;23697,416;   -5,242;24479,248; 0,01409
 774,70;23678,215;   -5,818;24711,361; 0,01854
 775,26;23754,682;   -4,545;24782,990; 0,01840
 775,82;23904,814;   -3,848;24716,801; 0,01450
 776,39;24010,736;   -5,061;24636,549; 0,01117
 776,95;23868,143;   -4,697;24706,967; 0,01500
 777,52;23665,336;   -4,758;24933,383; 0,02266
 778,08;23565,711;   -4,697;25044,525; 0,02643
 778,65;23689,662;   -5,030;24959,941; 0,02268
 779,21;23887,523;   -6,848;24878,660; 0,01765
 779,77;23838,051;   -3,636;24787,076; 0,01695
 780,34;23685,699;   -5,333;24932,189; 0,02227
 780,90;23595,045;   -5,091;25130,576; 0,02738
 781,47;23536,572;   -4,848;25097,205; 0,02788
 782,03;23629,855;   -5,424;24993,197; 0,02436
 782,59;23708,262;   -4,152;24843,219; 0,02030
 783,16;23677,760;   -5,545;24855,090; 0,02107
 783,72;23610,043;   -5,515;24821,293; 0,02172
 784,29;23605,631;   -3,727;24697,951; 0,01964
 784,85;23676,037;   -5,545;24577,338; 0,01622
 785,41;23806,807;   -4,545;24464,299; 0,01183
 785,98;23831,850;   -5,030;24470,141; 0,01148
 786,54;23738,104;   -5,879;24647,738; 0,01633
 787,10;23674,359;   -4,545;24754,549; 0,01937
 787,67;23652,795;   -5,909;24688,691; 0,01861
 788,23;23770,322;   -4,970;24466,805; 0,01254
 788,79;23844,365;   -5,061;24311,705; 0,00843
 789,36;23575,104;   -6,121;24153,455; 0,01052
 789,92;23328,934;   -4,030;24197,477; 0,01587
 790,48;23236,643;   -4,636;24255,771; 0,01864
 791,05;23391,080;   -5,545;24223,400; 0,01518
 791,61;23600,061;   -4,000;24031,361; 0,00786
 792,17;23650,104;   -5,364;23921,445; 0,00495
 792,74;23539,691;   -5,273;23895,406; 0,00651
 793,30;23380,764;   -4,394;23928,369; 0,01005
 793,86;23326,049;   -4,727;24017,178; 0,01268
 794,43;23281,637;   -3,333;23840,291; 0,01030
 794,99;23192,285;   -5,424;23638,980; 0,00828
 795,55;22942,115;   -5,030;23501,791; 0,01047
 796,11;22681,461;   -4,152;23543,510; 0,01620
 796,68;22529,320;   -5,636;23690,047; 0,02181
 797,24;22522,393;   -4,515;23660,281; 0,02140
 797,80;22607,012;   -5,424;23444,395; 0,01579
 798,36;22625,902;   -4,667;23185,932; 0,01062
 798,93;22574,611;   -3,576;23045,076; 0,00896
 799,49;22307,168;   -5,121;22976,311; 0,01283
 800,05;22112,182;   -4,545;22916,877; 0,01552
 800,61;22038,738;   -5,727;22795,930; 0,01467
 801,18;22022,145;   -5,788;22595,680; 0,01116
 801,74;21992,490;   -3,333;22408,096; 0,00813
 802,30;21923,229;   -5,061;22422,148; 0,00977
 802,86;21798,514;   -4,879;22600,383; 0,01569
 803,43;21684,646;   -3,636;22654,525; 0,01900
 803,99;21694,568;   -4,606;22630,609; 0,01834
 804,55;21764,398;   -2,818;22532,783; 0,01507
 805,11;21783,047;   -5,242;22373,350; 0,01161
 805,68;21645,906;   -4,697;22409,463; 0,01505
 806,24;21438,586;   -2,788;22481,213; 0,02062
 806,80;21252,537;   -5,242;22416,629; 0,02315
 807,36;21262,277;   -4,364;22282,773; 0,02036
 807,92;21382,107;   -4,788;22173,037; 0,01577
 808,48;21389,119;   -5,182;22085,635; 0,01391
 809,05;21191,191;   -2,970;22062,840; 0,01750
 809,61;21030,627;   -6,394;22254,801; 0,02456
 810,17;20984,336;   -4,394;22341,338; 0,02721
 810,73;21001,682;   -4,061;22220,998; 0,02450
 811,29;21090,240;   -5,545;22041,988; 0,01916
 811,85;21115,707;   -4,212;21840,770; 0,01466
 812,42;21045,234;   -5,758;21848,457; 0,01626
 812,98;21031,943;   -4,848;21982,057; 0,01918
 813,54;21043,227;   -4,909;22085,018; 0,02098
 814,10;21083,906;   -5,788;21952,586; 0,01753
 814,66;21164,010;   -3,909;21753,184; 0,01192
 815,22;21121,688;   -5,970;21610,629; 0,00994
 815,78;20974,336;   -4,970;21616,076; 0,01309
 816,35;20913,529;   -3,758;21784,129; 0,01771
 816,91;20913,238;   -5,848;21951,211; 0,02103
 817,47;20908,311;   -3,788;21906,021; 0,02024
 818,03;21002,051;   -4,879;21747,922; 0,01515
 818,59;21036,729;   -5,242;21615,461; 0,01178
 819,15;20989,621;   -3,485;21698,695; 0,01443
 819,71;20886,633;   -3,576;21852,354; 0,01963
 820,27;20868,734;   -5,000;21972,891; 0,02239
 820,83;20945,051;   -4,576;21893,215; 0,01922
 821,39;21073,486;   -5,939;21660,602; 0,01193
 821,96;21221,014;   -3,364;21551,139; 0,00670
 822,52;21289,693;   -5,697;21617,707; 0,00664
 823,08;21246,098;   -4,970;21714,334; 0,00947
 823,64;21217,080;   -3,606;21816,418; 0,01210
 824,20;21231,395;   -5,303;21734,621; 0,01017
 824,76;21403,861;   -4,818;21684,402; 0,00565
 825,32;21561,723;   -5,848;21633,121; 0,00144
 825,88;21500,068;   -5,485;21559,627; 0,00120
 826,44;21402,201;   -3,333;21640,984; 0,00482
 827,00;21418,426;   -5,879;21881,248; 0,00928
 827,56;21492,832;   -3,424;21911,422; 0,00838
 828,12;21651,904;   -5,030;21848,201; 0,00392
 828,68;21845,127;   -5,636;21771,193;-0,00147
 829,24;21881,504;   -3,909;21727,852;-0,00306
 829,80;21804,424;   -5,424;21809,541; 0,00010
 830,36;21612,982;   -4,545;21839,078; 0,00452
 830,92;21515,510;   -4,303;21852,434; 0,00675
 831,48;21610,674;   -5,333;21770,031; 0,00319
 832,04;21687,322;   -4,061;21570,297;-0,00235
 832,60;21670,303;   -4,576;21455,986;-0,00432
 833,16;21549,496;   -5,242;21585,432; 0,00072
 833,72;21440,600;   -2,576;21765,605; 0,00653
 834,28;21504,914;   -4,848;21906,355; 0,00803
 834,84;21646,199;   -5,152;21846,498; 0,00400
 835,40;21864,637;   -5,364;21755,582;-0,00217
 835,96;21960,799;   -4,909;21662,088;-0,00595
 836,52;21865,750;   -4,333;21654,172;-0,00422
 837,08;21546,490;   -5,273;21724,709; 0,00358
 837,64;21331,594;   -4,364;21860,609; 0,01064
 838,20;21241,150;   -4,970;21845,875; 0,01219
 838,76;21257,496;   -5,455;21708,715; 0,00912
 839,32;21244,508;   -3,636;21504,889; 0,00529
 839,88;21075,822;   -4,485;21396,518; 0,00656
 840,43;20896,531;   -4,879;21401,752; 0,01037
 840,99;20818,029;   -3,667;21529,563; 0,01459
 841,55;20860,586;   -5,212;21616,371; 0,01545
 842,11;21047,508;   -4,879;21626,484; 0,01178
 842,67;21279,822;   -4,273;21562,658; 0,00573
 843,23;21352,441;   -5,545;21461,500; 0,00221
 843,79;21320,604;   -3,970;21467,582; 0,00298
 844,35;21151,525;   -5,879;21540,211; 0,00791
 844,91;21022,113;   -4,606;21618,385; 0,01214
 845,47;20993,670;   -4,152;21575,648; 0,01187
 846,03;21077,379;   -5,273;21421,883; 0,00704
 846,58;21147,422;   -4,788;21239,420; 0,00188
 847,14;21094,131;   -4,576;21193,322; 0,00204
 847,70;20842,385;   -5,030;21276,313; 0,00895
 848,26;20629,307;   -3,939;21416,426; 0,01626
 848,82;20601,713;   -5,333;21592,813; 0,02040
 849,38;20650,422;   -4,121;21619,652; 0,01992
 849,94;20806,252;   -4,152;21500,371; 0,01425
 850,49;20874,082;   -4,727;21367,879; 0,01015
 851,05;20722,154;   -4,636;21311,719; 0,01218
 851,61;20532,531;   -5,121;21376,771; 0,01750
 852,17;20338,814;   -4,879;21445,461; 0,02300
 852,73;20392,828;   -3,788;21508,271; 0,02312
 853,29;20438,748;   -4,879;21371,748; 0,01938
 853,84;20434,125;   -3,667;21078,133; 0,01347
 854,40;20490,803;   -6,303;20954,307; 0,00971
 854,96;20341,967;   -5,697;20930,996; 0,01239
 855,52;20254,313;   -4,242;20967,352; 0,01502
 856,08;20191,566;   -5,788;21018,949; 0,01744
 856,63;20230,336;   -3,939;20991,699; 0,01604
 857,19;20390,832;   -5,121;20831,268; 0,00928
 857,75;20498,512;   -5,242;20671,320; 0,00364
 858,31;20475,039;   -3,909;20603,705; 0,00272
 858,86;20378,445;   -5,818;20644,424; 0,00563
 859,42;20243,941;   -4,909;20733,387; 0,01037
 859,98;20194,953;   -3,636;20861,045; 0,01409
 860,54;20208,754;   -5,152;20820,006; 0,01294
 861,10;20240,826;   -4,152;20648,029; 0,00865
 861,65;20219,051;   -4,424;20547,111; 0,00699
 862,21;20087,031;   -4,121;20510,135; 0,00905
 862,77;19917,529;   -5,182;20544,186; 0,01345
 863,32;19760,480;   -5,818;20639,330; 0,01889
 863,88;19735,250;   -3,727;20723,262; 0,02121
 864,44;19766,717;   -5,424;20655,254; 0,01909
 865,00;19864,486;   -6,485;20475,457; 0,01315
 865,55;19915,650;   -4,000;20356,723; 0,00951
 866,11;19906,359;   -4,485;20384,836; 0,01031
 866,67;19819,795;   -4,727;20607,705; 0,01693
 867,23;19740,170;   -4,152;20832,031; 0,02338
 867,78;19844,758;   -5,667;21079,842; 0,02621
 868,34;19954,377;   -4,212;21093,895; 0,02411
 868,90;20162,449;   -4,485;21065,037; 0,01901
 869,45;20331,369;   -4,636;21053,969; 0,01516
 870,01;20334,383;   -3,152;21162,203; 0,01733
 870,57;20320,484;   -5,879;21338,953; 0,02123
 871,12;20274,467;   -4,212;21485,762; 0,02520
 871,68;20232,842;   -4,788;21430,027; 0,02496
 872,24;20324,732;   -5,545;21254,596; 0,01942
 872,79;20538,775;   -4,636;21043,891; 0,01055
 873,35;20618,908;   -6,030;20881,881; 0,00550
 873,91;20528,254;   -4,394;20831,783; 0,00637
 874,46;20376,115;   -4,939;20879,744; 0,01060
 875,02;20234,672;   -5,667;20968,373; 0,01546
 875,57;20195,654;   -3,030;20975,213; 0,01645
 876,13;20219,605;   -4,879;20819,357; 0,01269
 876,69;20274,346;   -4,545;20695,197; 0,00892
 877,24;20196,689;   -3,273;20417,461; 0,00472
 877,80;20098,885;   -5,121;20422,363; 0,00693
 878,36;19899,320;   -4,303;20418,658; 0,01119
 878,91;19632,332;   -4,970;20448,043; 0,01768
 879,47;19511,707;   -4,030;20379,217; 0,01889
 880,02;19470,600;   -3,667;20168,967; 0,01530
 880,58;19452,369;   -5,303;19875,898; 0,00935
 881,14;19361,289;   -4,000;19685,344; 0,00721
 881,69;19178,756;   -4,030;19570,762; 0,00879
 882,25;18958,525;   -6,364;19547,844; 0,01329
 882,80;18783,266;   -4,515;19589,168; 0,01824
 883,36;18741,004;   -4,515;19550,889; 0,01837
 883,91;18863,805;   -3,545;19497,820; 0,01435
 884,47;18986,029;   -2,970;19364,689; 0,00858
 885,03;19026,980;   -5,788;19236,955; 0,00477
 885,58;18930,840;   -4,424;19147,674; 0,00494
 886,14;18722,246;   -4,455;19092,029; 0,00849
 886,69;18494,258;   -4,758;19167,779; 0,01553
 887,25;18348,088;   -3,667;19198,469; 0,01967
 887,80;18338,979;   -5,545;19061,643; 0,01678
 888,36;18403,264;   -5,091;18831,209; 0,00998
 888,91;18356,215;   -3,576;18579,990; 0,00526
 889,47;18245,258;   -5,000;18423,314; 0,00422
 890,02;18051,361;   -3,424;18436,822; 0,00917
 890,58;17880,523;   -5,515;18562,662; 0,01626
 891,13;17739,477;   -4,606;18625,563; 0,02116
 891,69;17724,336;   -5,424;18609,797; 0,02117
 892,24;17690,500;   -6,394;18424,820; 0,01766
 892,80;17763,754;   -5,061;18281,902; 0,01248
 893,35;17766,766;   -5,000;18173,076; 0,00982
 893,91;17674,840;   -4,606;18209,037; 0,01293
 894,46;17551,033;   -3,788;18278,818; 0,01764
 895,02;17415,682;   -6,061;18350,566; 0,02270
 895,57;17384,541;   -4,061;18351,619; 0,02351
 896,13;17416,736;   -3,909;18177,885; 0,01857
 896,68;17495,990;   -5,667;17957,330; 0,01130
 897,23;17507,305;   -3,939;17765,686; 0,00636
 897,79;17461,682;   -5,788;17692,859; 0,00571
 898,34;17251,480;   -4,091;17631,459; 0,00946
 898,90;17086,613;   -5,030;17624,693; 0,01346
 899,45;17021,990;   -5,121;17579,594; 0,01399
 900,01;17037,063;   -4,424;17440,768; 0,01017
 900,56;17098,922;   -4,758;17233,941; 0,00341
 901,11;17021,904;   -5,667;17002,479;-0,00050
 901,67;16913,402;   -3,182;16858,713;-0,00141
 902,22;16773,596;   -4,485;16817,887; 0,00114
 902,78;16604,455;   -3,848;16887,908; 0,00735
 903,33;16504,256;   -4,939;16959,689; 0,01182
 903,89;16500,723;   -5,879;17040,590; 0,01398
 904,44;16555,219;   -4,333;17002,582; 0,01158
 904,99;16605,746;   -4,576;16931,998; 0,00845
 905,55;16508,273;   -4,758;16746,293; 0,00622
 906,10;16349,013;   -4,333;16647,164; 0,00785
 906,65;16212,116;   -5,848;16694,338; 0,01272
 907,21;16116,491;   -3,576;16808,057; 0,01824
 907,76;16007,443;   -4,061;16844,928; 0,02214
 908,31;16069,395;   -5,000;16822,465; 0,01988
 908,87;16109,861;   -4,576;16667,668; 0,01478
 909,42;16132,115;   -4,485;16497,055; 0,00971
 909,97;16123,066;   -4,061;16331,440; 0,00558
 910,53;16042,806;   -5,091;16339,614; 0,00796
 911,08;15888,939;   -4,939;16307,394; 0,01129
 911,63;15726,272;   -3,000;16309,242; 0,01581
 912,19;15678,546;   -4,909;16247,303; 0,01547
 912,74;15740,212;   -4,455;16105,637; 0,00996
 913,29;15805,061;   -5,212;15893,454; 0,00242
 913,85;15847,303;   -5,303;15743,909;-0,00284
 914,40;15789,182;   -5,061;15647,030;-0,00393
 914,95;15595,394;   -5,152;15595,788; 0,00001
 915,51;15467,728;   -4,455;15637,091; 0,00473
 916,06;15365,121;   -3,030;15654,424; 0,00810
 916,61;15344,091;   -7,000;15649,061; 0,00854
 917,16;15391,637;   -3,848;15527,484; 0,00382
 917,72;15428,212;   -4,879;15375,484;-0,00149
 918,27;15424,000;   -4,636;15217,667;-0,00585
 918,82;15297,394;   -4,273;15115,151;-0,00520
 919,37;15128,030;   -5,970;15096,242;-0,00091
 919,93;14982,667;   -4,182;15115,849; 0,00384
 920,48;14827,667;   -4,061;15027,667; 0,00582
 921,03;14732,030;   -5,545;14942,879; 0,00617
 921,58;14715,606;   -5,242;14764,667; 0,00144
 922,14;14668,667;   -5,212;14522,606;-0,00434
 922,69;14595,818;   -4,303;14418,272;-0,00531
 923,24;14453,637;   -4,333;14317,576;-0,00411
 923,79;14256,849;   -5,909;14277,454; 0,00063
 924,35;14083,182;   -3,424;14364,484; 0,00859
 924,90;13978,728;   -5,121;14384,061; 0,01241
 925,45;13946,091;   -5,273;14356,363; 0,01259
 926,00;13915,909;   -4,485;14231,182; 0,00973
 926,55;13893,546;   -4,485;14082,697; 0,00587
 927,11;13803,182;   -4,212;13896,394; 0,00292
 927,66;13658,363;   -3,879;13799,303; 0,00446
 928,21;13460,818;   -5,485;13740,333; 0,00892
 928,76;13343,394;   -3,909;13739,576; 0,01270
 929,31;13228,061;   -5,121;13714,121; 0,01567
 929,86;13184,516;   -3,697;13622,182; 0,01418
 930,42;13213,758;   -5,303;13485,637; 0,00884
 930,97;13156,516;   -4,576;13315,363; 0,00521
 931,52;13075,728;   -4,364;13171,546; 0,00317
 932,07;12936,697;   -4,576;13082,424; 0,00486
 932,62;12735,818;   -4,485;13024,879; 0,00974
 933,17;12588,546;   -3,515;13016,939; 0,01453
 933,72;12490,849;   -6,152;12995,333; 0,01719
 934,28;12487,818;   -3,697;12879,272; 0,01340
 934,83;12504,788;   -4,394;12705,546; 0,00691
 935,38;12462,970;   -5,212;12474,697; 0,00041
 935,93;12352,000;   -4,273;12276,272;-0,00267
 936,48;12189,242;   -5,545;12170,303;-0,00068
 937,03;11990,849;   -4,152;12097,394; 0,00384
 937,58;11776,151;   -4,273;12050,424; 0,01000
 938,13;11685,272;   -5,030;12066,484; 0,01394
 938,68;11640,849;   -3,606;12010,939; 0,01359
 939,23;11632,909;   -4,970;11875,212; 0,00895
 939,79;11571,394;   -4,970;11685,151; 0,00425
 940,34;11496,182;   -4,485;11483,939;-0,00046
 940,89;11382,516;   -5,788;11339,516;-0,00164
 941,44;11219,242;   -4,394;11249,879; 0,00118
 941,99;11048,061;   -4,697;11156,788; 0,00425
 942,54;10901,758;   -5,424;11072,394; 0,00674
 943,09;10889,728;   -4,939;11050,091; 0,00635
 943,64;10863,939;   -4,303;10931,000; 0,00267
 944,19;10837,818;   -4,121;10715,212;-0,00494
 944,74;10717,637;   -4,394;10510,000;-0,00849
 945,29;10571,939;   -5,848;10345,788;-0,00939
 945,84;10347,394;   -4,030;10257,788;-0,00378
 946,39;10169,849;   -5,485;10225,242; 0,00236
 946,94; 9969,909;   -5,242;10156,970; 0,00807
 947,49; 9821,000;   -4,273;10061,333; 0,01050
 948,04; 9732,000;   -5,606; 9954,303; 0,00980
 948,59; 9660,516;   -4,515; 9793,061; 0,00592
 949,14; 9572,333;   -5,333; 9576,546; 0,00019
 949,69; 9444,728;   -4,788; 9389,970;-0,00252
 950,24; 9300,606;   -3,515; 9245,606;-0,00257
 950,79; 9130,758;   -6,182; 9189,546; 0,00279
 951,34; 8986,182;   -3,242; 9136,212; 0,00719
 951,89; 8836,818;   -4,515; 9073,151; 0,01146
 952,44; 8716,909;   -5,242; 8935,758; 0,01076
 952,99; 8636,182;   -3,121; 8798,061; 0,00806
 953,54; 8569,424;   -5,212; 8604,788; 0,00179
 954,09; 8474,546;   -5,333; 8438,788;-0,00184
 954,64; 8309,546;   -4,152; 8283,606;-0,00136
 955,19; 8155,576;   -5,909; 8204,788; 0,00261
 955,74; 8003,697;   -3,606; 8137,030; 0,00717
 956,28; 7865,545;   -4,576; 8064,909; 0,01086
 956,83; 7787,818;   -4,697; 8021,849; 0,01285
 957,38; 7711,849;   -3,333; 7906,030; 0,01080
 957,93; 7670,970;   -5,848; 7771,515; 0,00565
 958,48; 7647,273;   -3,879; 7644,909;-0,00013
 959,03; 7600,606;   -4,273; 7536,000;-0,00371
 959,58; 7523,727;   -5,061; 7457,515;-0,00384
 960,13; 7425,303;   -4,515; 7422,758;-0,00015
 960,68; 7339,909;   -6,091; 7425,121; 0,00501
 961,23; 7266,788;   -4,030; 7417,273; 0,00890
 961,77; 7237,879;   -4,212; 7370,697; 0,00789
 962,32; 7246,788;   -5,212; 7312,242; 0,00390
 962,87; 7228,606;   -3,455; 7201,394;-0,00164
 963,42; 7183,242;   -4,576; 7105,788;-0,00471
 963,97; 7098,182;   -5,091; 7036,182;-0,00381
 964,52; 7006,121;   -4,333; 7019,697; 0,00084
 965,07; 6909,030;   -4,848; 7025,030; 0,00723
 965,61; 6838,818;   -3,576; 7051,818; 0,01331
 966,16; 6782,515;   -3,909; 7039,151; 0,01612
 966,71; 6766,273;   -4,939; 6996,970; 0,01455
 967,26; 6748,849;   -3,636; 6939,515; 0,01209
 967,81; 6718,545;   -5,545; 6829,121; 0,00708
 968,36; 6644,394;   -4,909; 6751,212; 0,00692
 968,90; 6563,364;   -3,212; 6703,576; 0,00918
 969,45; 6462,000;   -6,061; 6696,939; 0,01550
 970,00; 6326,303;   -4,000; 6682,818; 0,02380
 970,55; 6240,273;   -4,030; 6667,909; 0,02877
 971,10; 6204,515;   -4,848; 6630,939; 0,02885
 971,64; 6190,788;   -4,030; 6585,636; 0,02683
 972,19; 6224,151;   -6,242; 6501,485; 0,01891
 972,74; 6199,455;   -4,606; 6418,636; 0,01508
 973,29; 6164,000;   -4,485; 6314,030; 0,01044
 973,84; 6089,303;   -4,394; 6263,667; 0,01225
 974,38; 6017,061;   -3,909; 6227,576; 0,01493
 974,93; 5956,030;   -4,727; 6218,273; 0,01870
 975,48; 5922,455;   -5,424; 6221,849; 0,02140
 976,03; 5928,424;   -4,242; 6187,333; 0,01855
 976,57; 5883,667;   -5,212; 6086,364; 0,01470
 977,12; 5893,818;   -3,818; 5991,182; 0,00711
 977,67; 5868,242;   -5,667; 5886,000; 0,00131
 978,21; 5837,606;   -4,758; 5822,000;-0,00116
 978,76; 5762,606;   -4,455; 5754,061;-0,00064
 979,31; 5714,939;   -4,970; 5741,212; 0,00199
 979,86; 5634,849;   -4,636; 5748,364; 0,00865
 980,40; 5584,212;   -3,182; 5728,545; 0,01108
 980,95; 5533,515;   -5,091; 5682,394; 0,01152
 981,50; 5527,364;   -3,182; 5637,970; 0,00860
 982,04; 5537,212;   -5,939; 5572,242; 0,00274
 982,59; 5533,000;   -3,485; 5502,242;-0,00242
 983,14; 5527,939;   -3,788; 5457,939;-0,00553
 983,68; 5469,121;   -5,424; 5391,364;-0,00621
 984,23; 5414,606;   -3,697; 5401,636;-0,00104
 984,78; 5337,182;   -3,970; 5384,727; 0,00385
 985,32; 5304,151;   -4,758; 5379,909; 0,00615
 985,87; 5302,667;   -4,667; 5356,970; 0,00442
 986,42; 5293,121;   -5,667; 5292,061;-0,00009
 986,96; 5310,182;   -3,667; 5239,061;-0,00585
 987,51; 5312,576;   -4,545; 5185,758;-0,01048
 988,06; 5275,879;   -5,848; 5116,606;-0,01330
 988,60; 5217,818;   -3,697; 5077,545;-0,01183
 989,15; 5157,424;   -4,818; 5063,091;-0,00801
 989,70; 5100,788;   -4,606; 5067,030;-0,00288
 990,24; 5042,606;   -5,364; 5069,182; 0,00228
 990,79; 5017,151;   -5,273; 5071,455; 0,00467
 991,33; 5006,849;   -4,121; 5043,970; 0,00321
 991,88; 4996,061;   -5,333; 4992,576;-0,00030
 992,43; 4977,091;   -4,939; 4929,515;-0,00417
 992,97; 4962,788;   -4,212; 4890,000;-0,00641
 993,52; 4901,061;   -4,273; 4847,303;-0,00479
 994,06; 4839,273;   -4,242; 4840,879; 0,00014
 994,61; 4764,091;   -4,636; 4827,697; 0,00575
 995,16; 4724,909;   -4,091; 4832,303; 0,00975
 995,70; 4701,061;   -5,152; 4815,970; 0,01048
 996,25; 4676,273;   -5,333; 4814,303; 0,01262
 996,79; 4673,576;   -3,788; 4774,879; 0,00931
 997,34; 4682,576;   -4,182; 4745,636; 0,00580
 997,88; 4656,939;   -5,091; 4700,788; 0,00407
 998,43; 4631,758;   -4,455; 4658,091; 0,00246
 998,97; 4569,030;   -4,697; 4623,849; 0,00517
 999,52; 4490,667;   -5,939; 4641,455; 0,01432
1000,06; 4425,576;   -4,333; 4640,667; 0,02059
1000,61; 4385,970;   -5,788; 4625,576; 0,02307
1001,15; 4358,242;   -3,152; 4598,909; 0,02333
1001,70; 4324,818;   -4,758; 4543,697; 0,02142
1002,24; 4304,697;   -5,212; 4469,061; 0,01625
1002,79; 4264,849;   -4,545; 4420,242; 0,01553
1003,33; 4220,333;   -5,061; 4363,091; 0,01443
1003,88; 4156,303;   -4,606; 4333,485; 0,01811
1004,42; 4107,242;   -4,485; 4320,667; 0,02198
1004,97; 4054,333;   -6,030; 4322,849; 0,02781
1005,51; 4018,939;   -4,121; 4324,485; 0,03179
1006,06; 4017,909;   -5,182; 4317,273; 0,03117
1006,60; 4018,970;   -4,636; 4276,667; 0,02696
1007,15; 4018,364;   -4,091; 4253,545; 0,02468
1007,69; 4024,152;   -4,727; 4216,970; 0,02030
1008,24; 3991,364;   -3,333; 4169,727; 0,01897
1008,78; 3958,606;   -5,091; 4143,303; 0,01978
1009,33; 3919,455;   -4,212; 4122,667; 0,02193
1009,87; 3866,727;   -4,636; 4121,364; 0,02767
1010,41; 3831,091;   -4,788; 4112,000; 0,03069
1010,96; 3826,727;   -4,424; 4085,727; 0,02841
1011,50; 3812,333;   -5,636; 4061,606; 0,02747
1012,05; 3816,576;   -6,121; 4021,758; 0,02271
1012,59; 3813,242;   -4,394; 3960,545; 0,01644
1013,13; 3800,848;   -4,091; 3906,212; 0,01186
1013,68; 3775,121;   -4,424; 3850,030; 0,00852
1014,22; 3749,394;   -4,424; 3813,242; 0,00732
1014,77; 3697,061;   -4,667; 3801,091; 0,01204
1015,31; 3661,000;   -3,697; 3792,000; 0,01525
1015,85; 3644,485;   -4,333; 3785,758; 0,01650
1016,40; 3615,909;   -4,303; 3787,576; 0,02012
1016,94; 3611,515;   -4,121; 3748,212; 0,01612
1017,48; 3615,939;   -5,091; 3699,212; 0,00987
1018,03; 3614,939;   -3,182; 3666,152; 0,00610
1018,57; 3612,212;   -5,212; 3623,788; 0,00139
1019,11; 3574,879;   -4,667; 3577,848; 0,00036
1019,66; 3537,545;   -4,030; 3540,424; 0,00035
1020,20; 3489,788;   -5,121; 3536,667; 0,00579
1020,74; 3457,606;   -4,879; 3533,091; 0,00937
1021,29; 3420,364;   -4,848; 3516,697; 0,01205
1021,83; 3406,273;   -5,727; 3490,273; 0,01056
1022,37; 3401,364;   -3,545; 3453,273; 0,00657
1022,92; 3389,758;   -6,152; 3403,970; 0,00181
1023,46; 3359,424;   -5,030; 3366,455; 0,00091
1024,00; 3342,091;   -4,485; 3320,455;-0,00282
1024,55; 3297,455;   -5,515; 3293,000;-0,00059
1025,09; 3259,303;   -3,879; 3277,364; 0,00240
1025,63; 3207,879;   -4,667; 3265,788; 0,00776
1026,17; 3164,061;   -6,182; 3246,636; 0,01117
1026,72; 3144,424;   -4,152; 3235,848; 0,01243
1027,26; 3138,455;   -5,121; 3231,909; 0,01272
1027,80; 3123,212;   -5,091; 3202,727; 0,01090
1028,35; 3107,939;   -4,697; 3167,788; 0,00827
1028,89; 3096,848;   -5,424; 3133,455; 0,00509
1029,43; 3072,848;   -4,212; 3095,758; 0,00322
1029,97; 3048,030;   -6,364; 3082,515; 0,00488
1030,52; 3016,424;   -4,545; 3076,121; 0,00850
1031,06; 2984,636;   -3,758; 3062,788; 0,01121
1031,60; 2942,242;   -6,273; 3054,182; 0,01618
1032,14; 2906,273;   -3,970; 3029,333; 0,01799
1032,68; 2866,455;   -4,667; 3013,333; 0,02167
1033,23; 2853,455;   -5,515; 2983,000; 0,01925
1033,77; 2832,242;   -4,818; 2932,939; 0,01515
1034,31; 2792,182;   -5,242; 2901,121; 0,01659
1034,85; 2769,364;   -4,091; 2856,394; 0,01342
1035,39; 2724,545;   -4,727; 2813,364; 0,01391
1035,94; 2665,939;   -5,061; 2792,758; 0,02015
1036,48; 2619,879;   -4,636; 2761,545; 0,02283
1037,02; 2581,152;   -4,727; 2741,939; 0,02620
1037,56; 2547,333;   -4,848; 2728,939; 0,02985
1038,10; 2520,121;   -3,152; 2700,606; 0,03000
1038,64; 2502,545;   -5,212; 2652,061; 0,02515
1039,19; 2479,152;   -3,545; 2612,606; 0,02274
1039,73; 2464,030;   -5,879; 2567,030; 0,01774
1040,27; 2440,545;   -5,939; 2522,455; 0,01430
1040,81; 2417,515;   -5,091; 2477,758; 0,01067
1041,35; 2371,485;   -5,364; 2441,273; 0,01257
1041,89; 2333,758;   -3,606; 2420,909; 0,01590
1042,43; 2302,152;   -4,152; 2396,545; 0,01742
1042,97; 2271,697;   -4,455; 2376,970; 0,01964
1043,52; 2251,182;   -3,182; 2354,485; 0,01946
1044,06; 2232,848;   -4,818; 2331,636; 0,01876
1044,60; 2211,182;   -4,424; 2294,121; 0,01596
1045,14; 2194,424;   -4,455; 2257,333; 0,01225
1045,68; 2162,545;   -4,606; 2223,333; 0,01201
1046,22; 2137,364;   -4,515; 2182,667; 0,00909
1046,76; 2093,485;   -4,636; 2157,697; 0,01309
1047,30; 2056,333;   -4,939; 2137,485; 0,01677
1047,84; 2020,727;   -4,424; 2113,697; 0,01949
1048,38; 1985,909;   -5,091; 2106,000; 0,02544
1048,92; 1952,061;   -5,242; 2085,970; 0,02874
1049,46; 1930,606;   -3,758; 2063,667; 0,02889
1050,00; 1918,364;   -4,909; 2033,788; 0,02531
1050,55; 1901,182;   -4,061; 1992,121; 0,02025
1051,09; 1883,879;   -3,939; 1953,455; 0,01572
1051,63; 1860,212;   -4,727; 1931,151; 0,01621
1052,17; 1840,939;   -3,727; 1889,242; 0,01123
1052,71; 1804,182;   -5,152; 1856,758; 0,01244
1053,25; 1772,485;   -5,061; 1833,030; 0,01455
1053,79; 1738,545;   -4,182; 1809,727; 0,01739
1054,33; 1713,758;   -4,152; 1795,182; 0,02011
1054,87; 1697,030;   -4,030; 1758,364; 0,01538
1055,41; 1684,455;   -5,545; 1745,485; 0,01541
1055,95; 1663,545;   -3,485; 1703,273; 0,01023
1056,49; 1643,455;   -4,424; 1670,303; 0,00702
1057,03; 1626,667;   -6,242; 1629,061; 0,00064
1057,57; 1596,818;   -3,273; 1607,818; 0,00298
1058,11; 1579,909;   -4,485; 1583,030; 0,00085
1058,64; 1542,636;   -4,152; 1570,242; 0,00768
1059,18; 1525,758;   -4,242; 1559,273; 0,00941
1059,72; 1497,394;   -5,273; 1549,636; 0,01484
1060,26; 1474,727;   -2,970; 1521,545; 0,01355
1060,80; 1460,636;   -5,273; 1509,606; 0,01427
1061,34; 1448,788;   -5,727; 1490,000; 0,01213
1061,88; 1429,727;   -3,667; 1461,364; 0,00948
1062,42; 1412,242;   -4,485; 1437,030; 0,00753
1062,96; 1394,151;   -4,485; 1414,939; 0,00641
1063,50; 1369,849;   -4,667; 1392,364; 0,00706
1064,04; 1342,818;   -4,545; 1372,788; 0,00955
1064,58; 1318,515;   -4,303; 1361,242; 0,01381
1065,12; 1300,061;   -4,909; 1350,303; 0,01641
1065,65; 1276,455;   -4,091; 1349,121; 0,02397
1066,19; 1254,485;   -3,970; 1321,182; 0,02243
1066,73; 1246,333;   -4,667; 1309,727; 0,02147
1067,27; 1236,697;   -3,364; 1294,606; 0,01982
1067,81; 1223,151;   -3,939; 1271,364; 0,01674
1068,35; 1206,545;   -4,091; 1251,909; 0,01598
1068,89; 1194,970;   -4,182; 1233,970; 0,01390
1069,43; 1175,182;   -5,303; 1211,818; 0,01327
1069,96; 1161,545;   -4,485; 1198,879; 0,01369
1070,50; 1144,303;   -4,939; 1185,970; 0,01547
1071,04; 1118,000;   -3,848; 1177,879; 0,02258
1071,58; 1107,030;   -4,485; 1161,273; 0,02069
1072,12; 1095,455;   -5,182; 1156,939; 0,02361
1072,66; 1086,545;   -4,242; 1141,151; 0,02121
1073,19; 1077,667;   -4,061; 1120,909; 0,01702
1073,73; 1067,970;   -5,152; 1103,242; 0,01405
1074,27; 1056,121;   -3,515; 1077,758; 0,00878
1074,81; 1044,273;   -4,515; 1066,273; 0,00902
1075,35; 1033,576;   -4,788; 1047,545; 0,00580
1075,88; 1014,151;   -4,364; 1028,849; 0,00622
1076,42;  994,424;   -6,091; 1023,061; 0,01226
1076,96;  985,939;   -4,333; 1012,061; 0,01131
1077,50;  965,364;   -4,727;  996,212; 0,01360
1078,04;  959,151;   -5,242;  979,364; 0,00901
1078,57;  949,364;   -3,727;  971,515; 0,00998
1079,11;  944,000;   -4,212;  954,818; 0,00493
1079,65;  928,000;   -4,030;  938,515; 0,00487
1080,19;  922,455;   -4,273;  918,364;-0,00192
1080,72;  906,758;   -5,333;  907,606; 0,00040
1081,26;  888,000;   -4,061;  893,576; 0,00271
1081,80;  872,727;   -5,636;  880,061; 0,00361
1082,33;  854,909;   -5,606;  870,242; 0,00767
1082,87;  834,121;   -4,818;  858,545; 0,01246
1083,41;  825,727;   -4,121;  848,545; 0,01178
1083,95;  813,758;   -3,818;  835,727; 0,01152
1084,48;  803,333;   -5,636;  829,515; 0,01383
1085,02;  791,212;   -4,879;  810,394; 0,01034
1085,56;  787,242;   -3,515;  798,212; 0,00598
1086,09;  778,515;   -5,121;  779,727; 0,00067
1086,63;  767,727;   -4,364;  773,455; 0,00321
1087,17;  750,788;   -4,727;  752,394; 0,00092
1087,70;  737,939;   -5,545;  747,394; 0,00549
1088,24;  728,849;   -3,576;  738,576; 0,00573
1088,78;  710,151;   -4,939;  728,121; 0,01078
1089,31;  701,455;   -5,030;  719,515; 0,01096
1089,85;  694,091;   -4,000;  711,849; 0,01091
1090,39;  683,182;   -4,576;  703,030; 0,01236
1090,92;  675,545;   -3,909;  696,849; 0,01341
1091,46;  663,333;   -4,485;  677,121; 0,00888
1092,00;  656,606;   -5,212;  671,030; 0,00936
1092,53;  647,636;   -4,061;  656,485; 0,00586
1093,07;  631,273;   -4,273;  646,424; 0,01023
1093,60;  625,121;   -5,061;  637,758; 0,00862
1094,14;  615,333;   -4,515;  629,727; 0,00997
1094,68;  604,061;   -4,879;  625,849; 0,01527
1095,21;  590,091;   -2,848;  609,151; 0,01374
1095,75;  583,727;   -4,788;  603,273; 0,01419
1096,28;  575,697;   -4,576;  598,121; 0,01647
1096,82;  563,727;   -5,000;  587,909; 0,01808
1097,36;  562,576;   -5,667;  578,061; 0,01168
1097,89;  554,364;   -4,455;  565,030; 0,00821
1098,43;  543,182;   -4,606;  558,970; 0,01234
1098,96;  536,000;   -4,909;  550,333; 0,01136
1099,50;  522,303;   -3,939;  537,061; 0,01201
1100,03;  519,212;   -5,303;  530,788; 0,00948

