
Integration time [ms]:  11,000
Averaging Nr. [scans]: 1000
Smoothing Nr. [pixels]: 0
Data measured with spectrometer [name]: AvaSpec-ULS-TEC-EVO
Wave   ;Sample   ;Dark     ;Reference;Absorbance
[nm]   ;[counts] ;[counts] ;[counts] ;[A.U]

 199,75;   -6,789;   -7,610;  408,413; 2,70484
 200,35;  -23,020;   -6,650;  461,019; 5,00000
 200,95;  -13,780;   -6,500;  572,433; 5,00000
 201,55;  -13,907;   -7,550;  721,237; 5,00000
 202,15;  -16,299;   -5,680;  912,907; 5,00000
 202,74;   -1,019;   -6,750; 1162,795; 2,30980
 203,34;  -11,574;   -6,370; 1409,762; 5,00000
 203,94;    8,433;   -6,190; 1704,539; 2,06813
 204,54;  -10,977;   -6,840; 1963,771; 5,00000
 205,14;    2,621;   -5,520; 2264,726; 2,44539
 205,74;   -5,219;   -7,320; 2540,928; 3,08391
 206,34;   -3,517;   -6,790; 2830,360; 2,93792
 206,93;    0,394;   -6,150; 3121,818; 2,67941
 207,53;   -3,767;   -7,420; 3420,364; 2,97241
 208,13;   -6,752;   -5,210; 3737,668; 5,00000
 208,73;    3,453;   -6,190; 4103,419; 2,62957
 209,33;  -14,746;   -7,180; 4478,250; 5,00000
 209,93;    1,385;   -5,330; 4921,618; 2,86555
 210,52;   -3,500;   -7,370; 5377,038; 3,14342
 211,12;   11,355;   -5,510; 5905,566; 2,54468
 211,72;    1,770;   -5,910; 6463,962; 2,92552
 212,32;    4,284;   -6,570; 7030,638; 2,81180
 212,92;   -1,133;   -4,700; 7601,841; 3,32894
 213,52;   -0,129;   -6,600; 8113,864; 3,09860
 214,11;   -1,096;   -6,450; 8546,407; 3,20344
 214,71;    9,657;   -4,760; 8801,453; 2,78590
 215,31;   -4,068;   -7,350; 8696,053; 3,42350
 215,91;   19,046;   -4,940; 8098,034; 2,52868
 216,51;    1,905;   -5,970; 6693,250; 2,92976
 217,10;    2,934;   -6,450; 4804,312; 2,70984
 217,70;   -6,520;   -5,130; 3887,019; 5,00000
 218,30;    9,155;   -7,120; 5731,179; 2,54725
 218,90;   -1,935;   -5,150; 9562,581; 3,47369
 219,50;   11,243;   -5,290;13499,140; 2,91213
 220,09;   13,447;   -6,390;16668,432; 2,92458
 220,69;   12,606;   -5,440;19050,957; 3,02366
 221,29;   14,529;   -6,330;20844,947; 2,99984
 221,89;   -4,958;   -4,960;22241,555; 5,00000
 222,49;   13,644;   -5,440;23453,451; 3,08964
 223,08;   16,111;   -5,970;24478,604; 3,04487
 223,68;   20,436;   -4,170;25444,168; 3,01462
 224,28;    6,481;   -6,220;26352,525; 3,31708
 224,88;   10,665;   -5,510;27245,875; 3,22654
 225,47;    6,653;   -4,450;28111,795; 3,40350
 226,07;   18,528;   -5,830;29020,199; 3,07615
 226,67;   12,246;   -4,240;29913,670; 3,25883
 227,27;   18,764;   -5,710;30811,223; 3,10009
 227,87;   13,319;   -4,870;31687,729; 3,24116
 228,46;   20,980;   -4,900;32598,400; 3,10029
 229,06;   11,605;   -6,570;33506,809; 3,26575
 229,66;   24,698;   -4,660;34377,777; 3,06861
 230,26;   13,816;   -5,000;35177,184; 3,27180
 230,85;    8,250;   -5,580;35950,422; 3,41494
 231,45;   12,842;   -4,490;36775,180; 3,32677
 232,05;   22,206;   -6,370;37517,605; 3,11831
 232,64;   12,789;   -4,790;38159,230; 3,33667
 233,24;    9,293;   -5,110;38771,480; 3,43012
 233,84;    6,844;   -6,210;39309,922; 3,47882
 234,44;   20,204;   -4,430;39791,742; 3,20832
 235,03;    2,734;   -5,860;40116,453; 3,66918
 235,63;   21,520;   -4,970;40446,324; 3,18385
 236,23;   41,860;   -5,080;40735,605; 2,93849
 236,83;   45,827;   -5,640;40923,809; 2,90050
 237,42;   53,075;   -4,800;41190,965; 2,85236
 238,02;   42,359;   -5,610;41401,422; 2,93611
 238,62;   76,605;   -5,730;41609,508; 2,70367
 239,21;   85,557;   -4,690;41762,191; 2,66540
 239,81;  104,901;   -6,220;41922,590; 2,57672
 240,41;  122,520;   -4,500;42056,629; 2,52001
 241,00;  146,674;   -5,000;42133,191; 2,44377
 241,60;  172,790;   -6,510;42138,082; 2,37116
 242,20;  211,865;   -4,760;42147,117; 2,28911
 242,80;  245,910;   -6,050;42137,734; 2,22340
 243,39;  299,890;   -4,920;42172,176; 2,14105
 243,99;  330,378;   -5,200;42110,297; 2,09865
 244,59;  386,018;   -7,180;42073,363; 2,02947
 245,18;  440,851;   -4,350;42045,070; 1,97520
 245,78;  498,225;   -5,950;42013,676; 1,92087
 246,38;  566,289;   -5,780;42006,480; 1,86593
 246,97;  655,404;   -5,370;42074,957; 1,80403
 247,57;  735,587;   -6,210;42079,844; 1,75385
 248,17;  817,698;   -4,510;42124,336; 1,70960
 248,76;  901,342;   -5,410;42256,742; 1,66846
 249,36; 1006,105;   -6,240;42343,125; 1,62152
 249,96; 1106,511;   -5,030;42558,926; 1,58312
 250,55; 1229,335;   -6,820;42789,395; 1,53933
 251,15; 1331,256;   -4,930;42937,875; 1,50702
 251,75; 1459,455;   -5,460;43128,895; 1,46901
 252,34; 1581,972;   -6,580;43367,145; 1,43623
 252,94; 1735,789;   -4,350;43648,574; 1,39943
 253,54; 1855,237;   -6,000;43878,816; 1,37251
 254,13; 2005,128;   -5,290;44047,246; 1,34068
 254,73; 2169,893;   -5,650;44236,750; 1,30827
 255,32; 2298,881;   -6,520;44405,941; 1,28476
 255,92; 2473,796;   -4,570;44549,930; 1,25473
 256,52; 2622,307;   -6,440;44668,555; 1,23032
 257,11; 2779,752;   -5,710;44757,000; 1,20602
 257,71; 2950,415;   -4,600;44728,059; 1,18007
 258,31; 3083,017;   -7,150;44624,469; 1,15966
 258,90; 3216,437;   -5,450;44451,422; 1,13983
 259,50; 3347,646;   -5,970;44150,438; 1,11948
 260,09; 3452,967;   -5,420;43719,145; 1,10185
 260,69; 3545,896;   -4,790;43160,762; 1,08483
 261,29; 3619,187;   -7,060;42541,266; 1,06943
 261,88; 3680,817;   -4,960;41946,234; 1,05622
 262,48; 3747,726;   -5,680;41491,508; 1,04359
 263,07; 3827,480;   -6,130;41307,359; 1,03248
 263,67; 3937,305;   -5,360;41442,727; 1,02171
 264,27; 4054,661;   -6,740;41665,012; 1,01117
 264,86; 4144,744;   -5,740;41859,453; 1,00375
 265,46; 4231,549;   -4,510;42049,523; 0,99685
 266,05; 4304,597;   -6,310;42083,207; 0,98961
 266,65; 4340,706;   -5,090;42058,195; 0,98583
 267,24; 4375,512;   -5,610;41966,449; 0,98137
 267,84; 4399,757;   -6,100;41854,281; 0,97777
 268,44; 4402,958;   -5,200;41768,227; 0,97664
 269,03; 4421,030;   -7,110;41639,914; 0,97336
 269,63; 4429,755;   -4,630;41448,031; 0,97072
 270,22; 4423,984;   -5,710;41242,098; 0,96903
 270,82; 4397,596;   -6,270;41018,383; 0,96921
 271,41; 4379,025;   -4,400;40796,820; 0,96886
 272,01; 4338,908;   -6,450;40545,543; 0,96999
 272,61; 4344,653;   -5,750;40409,582; 0,96802
 273,20; 4347,943;   -6,060;40469,719; 0,96831
 273,80; 4366,468;   -6,050;40629,945; 0,96818
 274,39; 4399,894;   -4,330;40954,605; 0,96848
 274,99; 4429,182;   -6,640;41198,133; 0,96797
 275,58; 4476,367;   -5,610;41502,047; 0,96666
 276,18; 4511,063;   -5,210;41728,820; 0,96571
 276,77; 4559,334;   -6,600;41899,020; 0,96274
 277,37; 4597,468;   -4,640;42081,145; 0,96118
 277,96; 4631,948;   -6,270;42206,184; 0,95909
 278,56; 4691,511;   -5,420;42398,559; 0,95559
 279,15; 4725,629;   -4,630;42487,133; 0,95342
 279,75; 4754,794;   -6,320;42532,613; 0,95108
 280,34; 4824,396;   -4,960;42624,875; 0,94582
 280,94; 4885,911;   -5,340;42748,133; 0,94155
 281,53; 4936,863;   -6,050;42792,832; 0,93745
 282,13; 5008,014;   -4,360;42834,344; 0,93179
 282,73; 5107,887;   -5,480;42914,922; 0,92396
 283,32; 5203,871;   -5,120;42917,754; 0,91594
 283,92; 5299,840;   -4,740;42854,121; 0,90739
 284,51; 5450,169;   -6,560;42891,699; 0,89551
 285,10; 5569,410;   -4,950;42878,320; 0,88609
 285,70; 5707,964;   -5,980;42873,418; 0,87531
 286,29; 5850,716;   -5,600;42813,313; 0,86401
 286,89; 5964,892;   -5,160;42529,355; 0,85276
 287,48; 6022,390;   -6,540;42097,754; 0,84409
 288,08; 6056,583;   -5,180;41423,109; 0,83470
 288,67; 6055,778;   -6,000;40648,785; 0,82651
 289,27; 6067,122;   -6,300;39953,578; 0,81819
 289,86; 6173,125;   -3,910;39750,133; 0,80860
 290,46; 6354,279;   -6,820;40067,051; 0,79933
 291,05; 6615,361;   -5,230;40737,918; 0,78916
 291,65; 6924,754;   -4,830;41614,348; 0,77859
 292,24; 7265,786;   -6,130;42429,613; 0,76608
 292,84; 7573,223;   -5,240;42961,941; 0,75356
 293,43; 7880,409;   -5,720;43353,734; 0,74022
 294,03; 8163,501;   -5,660;43567,613; 0,72704
 294,62; 8425,377;   -4,710;43621,258; 0,71391
 295,21; 8683,129;   -6,190;43565,137; 0,70022
 295,81; 8892,599;   -4,640;43291,738; 0,68720
 296,40; 9034,551;   -6,280;42778,508; 0,67508
 297,00; 9114,376;   -5,250;41983,336; 0,66315
 297,59; 9026,875;   -5,230;40567,809; 0,65245
 298,19; 8903,639;   -6,520;39097,855; 0,64234
 298,78; 9056,836;   -4,600;38909,285; 0,63291
 299,37; 9534,729;   -5,560;40062,500; 0,62324
 299,97; 9992,514;   -6,610;41034,957; 0,61326
 300,56;10263,242;   -3,280;41403,813; 0,60565
 301,16;10466,251;   -6,870;41464,840; 0,59768
 301,75;10603,585;   -4,710;41364,500; 0,59103
 302,35;10744,467;   -5,600;41286,625; 0,58446
 302,94;10839,349;   -6,280;41084,016; 0,57848
 303,53;10924,197;   -4,760;40852,648; 0,57269
 304,13;10984,998;   -6,290;40580,477; 0,56734
 304,72;11059,165;   -4,950;40370,137; 0,56220
 305,32;11126,708;   -5,140;40094,500; 0,55657
 305,91;11167,966;   -6,120;39768,941; 0,55140
 306,50;11200,211;   -4,750;39443,293; 0,54662
 307,10;11222,249;   -5,990;39089,742; 0,54182
 307,69;11211,931;   -5,930;38650,648; 0,53731
 308,28;11184,208;   -4,710;38215,535; 0,53351
 308,88;11188,774;   -6,820;37787,934; 0,52838
 309,47;11130,936;   -4,920;37246,480; 0,52442
 310,07;11076,638;   -6,010;36701,930; 0,52012
 310,66;11031,959;   -5,720;36190,793; 0,51579
 311,25;11062,932;   -4,320;35871,527; 0,51076
 311,85;11107,414;   -6,530;35697,355; 0,50685
 312,44;11178,489;   -4,750;35559,773; 0,50245
 313,03;11273,299;   -5,090;35536,910; 0,49849
 313,63;11359,272;   -6,110;35437,836; 0,49396
 314,22;11432,698;   -4,750;35321,625; 0,48977
 314,81;11473,245;   -6,110;35120,879; 0,48572
 315,41;11520,515;   -5,360;34873,863; 0,48089
 316,00;11514,498;   -5,980;34551,836; 0,47708
 316,59;11499,629;   -5,930;34170,734; 0,47282
 317,19;11465,226;   -4,520;33720,051; 0,46839
 317,78;11426,117;   -6,180;33279,277; 0,46412
 318,37;11461,242;   -5,870;33076,520; 0,46014
 318,97;11539,280;   -4,600;33012,941; 0,45639
 319,56;11720,532;   -6,700;33205,652; 0,45210
 320,15;11923,080;   -4,910;33442,141; 0,44779
 320,75;12126,911;   -5,370;33699,598; 0,44375
 321,34;12296,624;   -6,290;33867,184; 0,43985
 321,93;12471,056;   -5,090;34010,262; 0,43559
 322,53;12611,045;   -6,500;34130,953; 0,43226
 323,12;12749,398;   -5,740;34199,043; 0,42840
 323,71;12878,041;   -4,850;34263,777; 0,42488
 324,31;13014,051;   -6,400;34328,363; 0,42111
 324,90;13144,181;   -4,740;34419,051; 0,41797
 325,49;13267,131;   -5,630;34495,172; 0,41487
 326,09;13379,644;   -5,820;34504,867; 0,41132
 326,68;13498,920;   -4,920;34551,102; 0,40807
 327,27;13592,001;   -6,280;34556,129; 0,40512
 327,86;13719,312;   -4,420;34658,832; 0,40240
 328,46;13817,191;   -5,740;34694,797; 0,39974
 329,05;13918,191;   -5,500;34723,918; 0,39694
 329,64;14001,011;   -4,810;34697,020; 0,39404
 330,23;14088,600;   -7,140;34686,039; 0,39116
 330,83;14079,786;   -5,260;34513,984; 0,38930
 331,42;14078,792;   -5,390;34334,063; 0,38706
 332,01;14014,056;   -6,700;34028,137; 0,38515
 332,61;13910,792;   -4,740;33608,844; 0,38302
 333,20;13777,931;   -5,760;33131,082; 0,38095
 333,79;13679,437;   -4,920;32797,313; 0,37968
 334,38;13694,684;   -5,790;32662,674; 0,37739
 334,98;13779,922;   -6,230;32727,504; 0,37555
 335,57;13929,963;   -4,790;32923,301; 0,37347
 336,16;14023,673;   -5,450;33010,660; 0,37170
 336,75;14112,876;   -5,070;33005,914; 0,36889
 337,34;14157,418;   -4,950;32939,508; 0,36665
 337,94;14144,362;   -6,250;32774,348; 0,36484
 338,53;14106,909;   -5,090;32594,887; 0,36363
 339,12;14049,036;   -5,130;32358,008; 0,36225
 339,71;13966,395;   -6,210;32067,832; 0,36088
 340,31;13859,294;   -3,760;31727,078; 0,35962
 340,90;13706,681;   -6,780;31251,420; 0,35782
 341,49;13424,010;   -4,550;30496,941; 0,35629
 342,08;13037,825;   -6,070;29563,242; 0,35543
 342,67;12708,017;   -6,580;28732,953; 0,35418
 343,27;12646,590;   -4,630;28512,916; 0,35298
 343,86;12827,132;   -5,970;28787,498; 0,35096
 344,45;13065,568;   -4,630;29203,045; 0,34921
 345,04;13202,844;   -4,970;29361,043; 0,34701
 345,63;13256,490;   -5,970;29410,137; 0,34596
 346,23;13303,474;   -3,950;29363,127; 0,34377
 346,82;13232,276;   -6,060;29094,301; 0,34206
 347,41;13160,705;   -5,680;28817,322; 0,34027
 348,00;13029,812;   -5,040;28416,773; 0,33855
 348,59;12874,317;   -6,370;27968,508; 0,33683
 349,19;12775,821;   -4,670;27628,648; 0,33489
 349,78;12691,402;   -5,400;27342,459; 0,33323
 350,37;12635,777;   -6,820;27127,225; 0,33168
 350,96;12533,912;   -4,960;26833,986; 0,33051
 351,55;12410,347;   -6,460;26484,248; 0,32908
 352,14;12312,271;   -4,790;26133,574; 0,32677
 352,74;12188,321;   -4,920;25772,361; 0,32512
 353,33;12024,999;   -6,070;25324,893; 0,32335
 353,92;11828,625;   -4,970;24836,852; 0,32207
 354,51;11606,893;   -5,880;24300,754; 0,32079
 355,10;11415,657;   -5,590;23834,904; 0,31960
 355,69;11291,227;   -4,860;23473,084; 0,31773
 356,28;11315,439;   -6,210;23420,941; 0,31581
 356,88;11369,578;   -4,910;23491,221; 0,31506
 357,47;11472,334;   -5,860;23620,682; 0,31353
 358,06;11541,541;   -6,050;23676,047; 0,31193
 358,65;11575,243;   -4,570;23658,885; 0,31038
 359,24;11547,137;   -6,570;23532,359; 0,30907
 359,83;11494,791;   -4,240;23381,188; 0,30828
 360,42;11436,996;   -5,470;23201,406; 0,30710
 361,01;11373,143;   -5,770;23020,977; 0,30613
 361,61;11294,955;   -4,520;22829,012; 0,30551
 362,20;11242,495;   -5,920;22666,969; 0,30442
 362,79;11125,710;   -4,840;22397,529; 0,30378
 363,38;10942,209;   -5,890;21959,531; 0,30240
 363,97;10693,234;   -6,450;21361,387; 0,30039
 364,56;10337,352;   -4,970;20641,799; 0,30023
 365,15;10087,795;   -6,780;20131,494; 0,29993
 365,74;10216,003;   -5,620;20335,105; 0,29885
 366,33;10598,525;   -4,860;21005,813; 0,29700
 366,92;10861,018;   -6,140;21467,369; 0,29579
 367,51;10992,008;   -4,090;21677,588; 0,29485
 368,11;10939,094;   -5,500;21506,955; 0,29349
 368,70;10946,377;   -6,110;21395,543; 0,29093
 369,29;10977,214;   -4,060;21345,301; 0,28873
 369,88;10836,717;   -5,960;21001,736; 0,28724
 370,47;10724,092;   -5,440;20757,438; 0,28671
 371,06;10693,224;   -5,820;20625,779; 0,28519
 371,65;10695,623;   -6,220;20549,531; 0,28347
 372,24;10644,508;   -4,170;20364,600; 0,28167
 372,83;10564,324;   -6,510;20145,744; 0,28021
 373,42;10491,229;   -5,600;19917,430; 0,27830
 374,01;10425,871;   -5,820;19733,813; 0,27698
 374,60;10453,061;   -6,140;19662,816; 0,27428
 375,19;10499,031;   -4,600;19687,021; 0,27294
 375,78;10494,776;   -6,360;19616,529; 0,27153
 376,37;10551,073;   -5,800;19649,773; 0,26995
 376,96;10802,161;   -5,090;19964,688; 0,26666
 377,55;11096,253;   -6,010;20370,486; 0,26372
 378,14;11425,880;   -4,850;20851,805; 0,26117
 378,73;11762,881;   -6,450;21367,006; 0,25912
 379,32;11997,246;   -5,850;21655,002; 0,25638
 379,91;11777,826;   -5,180;21137,689; 0,25391
 380,50;11771,322;   -5,950;20995,664; 0,25121
 381,09;11639,181;   -4,720;20658,305; 0,24910
 381,68;11554,965;   -5,420;20457,619; 0,24800
 382,27;11708,589;   -6,910;20606,350; 0,24539
 382,86;11742,547;   -4,730;20485,701; 0,24161
 383,45;11603,860;   -6,280;20108,654; 0,23868
 384,04;11496,448;   -4,960;19780,813; 0,23560
 384,63;11215,055;   -5,250;19173,230; 0,23281
 385,22;10961,661;   -6,670;18644,904; 0,23057
 385,81;11062,286;   -4,670;18704,373; 0,22802
 386,40;11473,424;   -5,680;19233,221; 0,22427
 386,99;12034,501;   -5,570;19970,438; 0,21988
 387,58;12453,891;   -5,800;20484,287; 0,21604
 388,17;12815,225;   -6,630;20892,439; 0,21218
 388,76;12888,100;   -5,130;20844,428; 0,20874
 389,35;12561,350;   -4,720;20201,404; 0,20628
 389,94;12545,105;   -5,980;20043,816; 0,20343
 390,53;12693,669;   -5,170;20138,889; 0,20038
 391,12;12939,850;   -6,580;20327,195; 0,19607
 391,71;13375,990;   -5,010;20847,459; 0,19267
 392,30;14051,959;   -5,620;21741,459; 0,18949
 392,89;14477,980;   -6,460;22237,377; 0,18631
 393,48;13821,692;   -5,100;21081,348; 0,18328
 394,07;13276,452;   -6,480;20084,283; 0,17970
 394,66;13214,211;   -4,950;19840,822; 0,17646
 395,25;13127,347;   -4,850;19570,762; 0,17338
 395,84;13107,834;   -6,210;19384,047; 0,16985
 396,43;13411,756;   -5,120;19655,902; 0,16595
 397,01;13891,748;   -5,690;20196,789; 0,16247
 397,60;14717,826;   -4,770;21221,121; 0,15888
 398,19;15508,550;   -4,570;22175,430; 0,15526
 398,78;15465,444;   -6,560;21946,383; 0,15195
 399,37;14776,515;   -5,080;20808,207; 0,14862
 399,96;14312,078;   -5,140;20010,287; 0,14551
 400,55;14185,998;   -6,570;19699,201; 0,14253
 401,14;14226,599;   -4,970;19598,684; 0,13908
 401,73;13936,023;   -6,180;19068,381; 0,13612
 402,32;13868,358;   -4,130;18849,604; 0,13324
 402,91;13874,073;   -5,340;18712,277; 0,12988
 403,49;13905,272;   -5,570;18616,561; 0,12668
 404,08;13962,025;   -4,930;18581,922; 0,12410
 404,67;14105,978;   -5,970;18651,330; 0,12126
 405,26;14163,960;   -5,860;18608,387; 0,11848
 405,85;13709,591;   -4,790;17901,625; 0,11583
 406,44;13100,906;   -6,300;17024,414; 0,11372
 407,03;12981,398;   -5,060;16760,619; 0,11093
 407,62;13169,521;   -6,260;16849,123; 0,10696
 408,20;13785,072;   -5,540;17489,520; 0,10333
 408,79;14098,128;   -4,610;17791,629; 0,10102
 409,38;13963,271;   -6,440;17574,771; 0,09986
 409,97;13775,102;   -4,840;17254,195; 0,09777
 410,56;13249,184;   -6,160;16511,299; 0,09555
 411,15;13035,826;   -6,080;16173,547; 0,09363
 411,73;12849,421;   -4,600;15846,300; 0,09101
 412,32;12867,017;   -6,100;15800,457; 0,08915
 412,91;12841,035;   -5,730;15654,917; 0,08602
 413,50;12721,145;   -5,190;15417,656; 0,08346
 414,09;12376,991;   -5,760;14943,342; 0,08180
 414,68;12133,559;   -4,640;14604,445; 0,08047
 415,26;12138,240;   -6,080;14552,011; 0,07873
 415,85;12432,944;   -5,600;14847,508; 0,07705
 416,44;12819,077;   -4,670;15246,654; 0,07529
 417,03;12972,435;   -6,300;15358,659; 0,07330
 417,62;13229,608;   -4,440;15581,065; 0,07103
 418,21;13464,423;   -5,390;15778,221; 0,06884
 418,79;13845,335;   -5,220;16107,984; 0,06571
 419,38;14178,731;   -4,870;16403,412; 0,06328
 419,97;14575,317;   -6,550;16809,129; 0,06190
 420,56;15395,788;   -3,770;17716,475; 0,06096
 421,15;16496,326;   -5,010;18906,578; 0,05921
 421,73;16977,344;   -6,080;19382,727; 0,05753
 422,32;16064,023;   -4,430;18305,000; 0,05670
 422,91;15195,391;   -6,550;17286,502; 0,05597
 423,50;14718,806;   -5,000;16697,664; 0,05477
 424,08;14577,665;   -5,690;16478,432; 0,05321
 424,67;14765,746;   -6,440;16628,545; 0,05158
 425,26;14613,193;   -4,550;16428,834; 0,05085
 425,85;14004,617;   -6,010;15721,565; 0,05020
 426,43;13876,958;   -5,040;15553,646; 0,04952
 427,02;14244,496;   -5,510;15937,093; 0,04874
 427,61;14499,076;   -6,310;16161,780; 0,04713
 428,20;14740,770;   -4,350;16395,949; 0,04620
 428,79;15445,287;   -5,750;17144,508; 0,04531
 429,37;17186,801;   -6,090;19004,570; 0,04365
 429,96;18110,672;   -4,720;19960,113; 0,04222
 430,55;17547,664;   -6,250;19344,139; 0,04232
 431,13;15960,319;   -5,000;17557,701; 0,04141
 431,72;14237,545;   -5,420;15652,367; 0,04113
 432,31;13700,536;   -6,230;15039,870; 0,04049
 432,90;14148,040;   -4,280;15504,899; 0,03976
 433,48;16067,919;   -7,070;17580,107; 0,03905
 434,07;15416,887;   -5,030;16831,682; 0,03812
 434,66;14275,639;   -5,420;15571,168; 0,03771
 435,25;14210,253;   -6,090;15487,326; 0,03736
 435,83;14136,715;   -4,440;15381,212; 0,03663
 436,42;14506,229;   -4,990;15753,079; 0,03580
 437,01;13832,035;   -5,540;15007,778; 0,03542
 437,59;13584,014;   -5,180;14729,847; 0,03516
 438,18;13894,758;   -6,340;15038,108; 0,03433
 438,77;13971,039;   -4,080;15110,452; 0,03404
 439,35;13674,831;   -5,730;14778,076; 0,03368
 439,94;13473,499;   -6,300;14550,493; 0,03338
 440,53;14181,876;   -4,420;15278,826; 0,03235
 441,11;15913,968;   -6,540;17114,941; 0,03158
 441,70;15910,631;   -4,560;17116,352; 0,03172
 442,29;15263,833;   -5,760;16411,766; 0,03148
 442,87;15501,534;   -5,450;16639,898; 0,03077
 443,46;15916,664;   -4,990;17034,736; 0,02947
 444,05;15382,757;   -6,160;16469,652; 0,02964
 444,63;15056,855;   -4,920;16119,683; 0,02961
 445,22;14692,514;   -5,850;15734,875; 0,02976
 445,81;14493,849;   -6,180;15516,693; 0,02960
 446,39;14761,466;   -4,610;15805,767; 0,02968
 446,98;14098,308;   -6,110;15100,213; 0,02980
 447,57;13616,815;   -5,630;14571,107; 0,02941
 448,15;13277,642;   -5,060;14193,886; 0,02897
 448,74;13526,586;   -5,960;14452,521; 0,02874
 449,33;13601,918;   -5,250;14506,088; 0,02794
 449,91;13485,357;   -5,570;14370,955; 0,02761
 450,50;13303,227;   -5,780;14174,355; 0,02753
 451,08;12942,957;   -4,910;13807,447; 0,02807
 451,67;13101,593;   -6,140;13975,134; 0,02802
 452,26;12851,556;   -4,430;13719,604; 0,02838
 452,84;12335,219;   -5,880;13162,673; 0,02818
 453,43;11871,722;   -5,960;12680,514; 0,02861
 454,02;11727,320;   -5,180;12504,091; 0,02784
 454,60;11892,274;   -5,260;12666,693; 0,02739
 455,19;12478,049;   -5,390;13266,272; 0,02659
 455,77;11940,686;   -5,440;12683,391; 0,02619
 456,36;11585,693;   -6,410;12291,621; 0,02567
 456,95;11915,246;   -4,590;12640,288; 0,02564
 457,53;12404,414;   -5,460;13143,963; 0,02514
 458,12;12382,192;   -5,640;13112,050; 0,02486
 458,70;12373,740;   -4,180;13114,213; 0,02523
 459,29;12600,598;   -6,150;13336,690; 0,02465
 459,87;12619,134;   -5,280;13342,459; 0,02420
 460,46;12415,522;   -5,810;13126,459; 0,02417
 461,05;12434,708;   -5,520;13145,103; 0,02412
 461,63;11122,614;   -4,710;11762,145; 0,02427
 462,22;10450,765;   -6,180;11075,936; 0,02522
 462,80;10553,386;   -5,420;11204,816; 0,02600
 463,39;11259,219;   -5,020;11963,175; 0,02633
 463,97;11396,277;   -6,110;12100,579; 0,02603
 464,56;12115,576;   -4,680;12819,995; 0,02453
 465,14;12710,620;   -6,260;13453,040; 0,02464
 465,73;13104,482;   -5,020;13867,416; 0,02457
 466,31;11510,196;   -5,300;12199,853; 0,02526
 466,90;10383,294;   -6,320;11007,707; 0,02535
 467,49;10016,544;   -4,580;10633,442; 0,02594
 468,07; 9880,036;   -5,860;10471,713; 0,02524
 468,66; 9321,591;   -5,400; 9897,492; 0,02602
 469,24; 8985,189;   -4,910; 9551,345; 0,02652
 469,83; 8669,974;   -5,920; 9218,548; 0,02663
 470,41; 8637,172;   -4,470; 9175,597; 0,02625
 471,00; 8530,383;   -5,680; 9049,954; 0,02566
 471,58; 8693,400;   -5,410; 9187,050; 0,02397
 472,17; 8874,887;   -5,150; 9365,774; 0,02337
 472,75; 9174,766;   -6,300; 9662,396; 0,02247
 473,34; 9475,647;   -4,150;10000,312; 0,02339
 473,92; 9389,144;   -5,010; 9915,024; 0,02366
 474,51; 9630,558;   -6,400;10161,303; 0,02328
 475,09;10288,099;   -4,850;10831,960; 0,02236
 475,68; 9689,057;   -5,870;10229,860; 0,02357
 476,26; 9338,957;   -4,950; 9851,242; 0,02318
 476,85; 8975,958;   -4,820; 9473,723; 0,02343
 477,43; 9040,171;   -6,780; 9545,911; 0,02362
 478,01; 9597,489;   -4,660;10105,465; 0,02239
 478,60; 9216,762;   -5,430; 9709,957; 0,02263
 479,18; 9359,289;   -5,360; 9857,716; 0,02252
 479,77; 9885,354;   -4,710;10417,262; 0,02275
 480,35; 9995,931;   -5,610;10539,835; 0,02300
 480,94; 9707,415;   -4,940;10248,181; 0,02353
 481,52;10250,269;   -4,640;10800,007; 0,02268
 482,11; 9703,398;   -5,660;10216,801; 0,02238
 482,69; 9062,963;   -4,380; 9549,993; 0,02272
 483,27; 9163,108;   -5,540; 9638,667; 0,02196
 483,86; 9632,584;   -4,860;10126,994; 0,02173
 484,44;10901,838;   -4,420;11444,407; 0,02109
 485,03;17124,758;   -6,420;17953,146; 0,02051
 485,61;36988,836;   -4,270;38407,234; 0,01634
 486,20;26968,977;   -5,570;27925,584; 0,01513
 486,78;13597,975;   -5,090;14249,820; 0,02033
 487,36;10667,999;   -5,290;11201,056; 0,02117
 487,95; 8821,940;   -6,560; 9294,301; 0,02264
 488,53; 8504,695;   -4,660; 8988,563; 0,02402
 489,12; 8284,504;   -5,540; 8749,044; 0,02368
 489,70; 7871,227;   -5,870; 8324,483; 0,02430
 490,28; 7689,822;   -5,620; 8129,604; 0,02414
 490,87; 7931,704;   -5,420; 8390,695; 0,02442
 491,45; 7867,418;   -3,980; 8304,289; 0,02346
 492,04; 7920,023;   -4,940; 8362,894; 0,02362
 492,62; 7901,210;   -6,480; 8326,259; 0,02274
 493,20; 8039,402;   -4,470; 8457,118; 0,02199
 493,79; 8098,186;   -5,920; 8534,292; 0,02276
 494,37; 8215,630;   -4,760; 8649,064; 0,02232
 494,95; 7746,861;   -5,830; 8161,443; 0,02262
 495,54; 8091,404;   -5,630; 8521,300; 0,02247
 496,12; 9261,895;   -4,660; 9715,174; 0,02074
 496,71; 8485,138;   -5,790; 8902,781; 0,02085
 497,29; 7440,030;   -5,720; 7819,369; 0,02158
 497,87; 7296,406;   -4,280; 7666,118; 0,02145
 498,46; 7556,689;   -5,870; 7948,575; 0,02194
 499,04; 7970,015;   -4,110; 8378,854; 0,02171
 499,62; 8296,224;   -5,160; 8721,157; 0,02168
 500,21; 7808,580;   -6,350; 8210,225; 0,02177
 500,79; 8113,380;   -4,420; 8517,501; 0,02110
 501,37; 8542,923;   -6,230; 8924,335; 0,01896
 501,96; 8566,845;   -4,970; 8925,453; 0,01780
 502,54; 8609,904;   -5,310; 8968,785; 0,01772
 503,12; 8696,347;   -5,570; 9070,275; 0,01827
 503,71; 8402,723;   -4,770; 8761,551; 0,01815
 504,29; 8167,676;   -5,980; 8529,287; 0,01880
 504,87; 8220,389;   -4,980; 8570,893; 0,01812
 505,45; 8145,139;   -5,130; 8492,605; 0,01813
 506,04; 8431,594;   -5,890; 8802,374; 0,01868
 506,62; 8148,776;   -4,000; 8493,973; 0,01801
 507,20; 7610,260;   -5,590; 7956,125; 0,01929
 507,79; 7922,415;   -5,360; 8303,223; 0,02038
 508,37; 7855,948;   -5,030; 8232,951; 0,02034
 508,95; 7383,797;   -6,620; 7742,479; 0,02058
 509,53; 7288,267;   -4,970; 7630,221; 0,01990
 510,12; 7306,749;   -6,570; 7645,483; 0,01966
 510,70; 7097,465;   -5,500; 7427,726; 0,01974
 511,28; 6912,491;   -4,360; 7243,441; 0,02030
 511,87; 6555,976;   -5,750; 6859,582; 0,01964
 512,45; 6583,160;   -4,360; 6896,475; 0,02018
 513,03; 6658,623;   -5,900; 6960,527; 0,01924
 513,61; 6436,609;   -5,510; 6735,018; 0,01967
 514,20; 6369,002;   -4,330; 6672,769; 0,02022
 514,78; 6053,838;   -5,730; 6349,153; 0,02067
 515,36; 6073,950;   -5,930; 6380,756; 0,02138
 515,94; 6397,688;   -5,180; 6687,550; 0,01923
 516,52; 6468,036;   -5,710; 6756,467; 0,01893
 517,11; 6203,240;   -4,210; 6491,918; 0,01974
 517,69; 5997,636;   -5,740; 6283,451; 0,02020
 518,27; 6041,978;   -5,440; 6335,113; 0,02056
 518,85; 6439,556;   -5,090; 6739,753; 0,01977
 519,44; 6206,264;   -6,390; 6498,253; 0,01995
 520,02; 5795,573;   -5,130; 6064,250; 0,01966
 520,60; 5827,604;   -5,550; 6093,136; 0,01933
 521,18; 6034,687;   -5,130; 6293,759; 0,01824
 521,76; 5947,083;   -4,530; 6215,064; 0,01913
 522,35; 6216,325;   -6,440; 6499,037; 0,01930
 522,93; 6421,992;   -5,490; 6703,680; 0,01863
 523,51; 6676,951;   -5,200; 6970,689; 0,01868
 524,09; 6884,368;   -6,100; 7180,172; 0,01825
 524,67; 6836,736;   -3,360; 7135,048; 0,01854
 525,26; 6995,300;   -5,990; 7286,571; 0,01770
 525,84; 7306,053;   -5,380; 7586,687; 0,01636
 526,42; 7580,970;   -4,500; 7856,202; 0,01548
 527,00; 7842,553;   -6,010; 8112,383; 0,01468
 527,58; 8015,993;   -4,390; 8285,564; 0,01436
 528,16; 8625,933;   -5,930; 8902,935; 0,01372
 528,75; 9240,965;   -5,600; 9534,871; 0,01359
 529,33; 9133,869;   -4,470; 9436,248; 0,01414
 529,91; 9045,783;   -5,750; 9354,711; 0,01458
 530,49; 9076,433;   -4,740; 9391,240; 0,01480
 531,07; 9105,563;   -5,580; 9402,570; 0,01393
 531,65; 9169,582;   -5,630; 9457,454; 0,01342
 532,23; 9089,004;   -4,400; 9383,016; 0,01382
 532,82; 9459,340;   -6,080; 9754,962; 0,01336
 533,40; 9515,021;   -4,700; 9812,563; 0,01337
 533,98; 9340,485;   -5,110; 9649,540; 0,01413
 534,56; 9192,509;   -5,730; 9498,303; 0,01420
 535,14; 9003,830;   -4,770; 9293,424; 0,01374
 535,72; 8631,889;   -5,470; 8899,208; 0,01324
 536,30; 8251,203;   -5,180; 8513,757; 0,01360
 536,88; 8265,173;   -4,890; 8545,039; 0,01445
 537,47; 8666,874;   -5,770; 8958,270; 0,01435
 538,05; 8954,757;   -4,360; 9239,761; 0,01360
 538,63; 9066,432;   -5,260; 9357,008; 0,01369
 539,21; 9148,039;   -5,350; 9434,025; 0,01336
 539,79; 9068,637;   -4,880; 9315,724; 0,01167
 540,37; 9271,500;   -5,780; 9527,840; 0,01184
 540,95; 9671,387;   -4,460; 9941,690; 0,01197
 541,53; 9659,751;   -5,910; 9945,771; 0,01266
 542,11; 9701,498;   -5,890;10002,776; 0,01327
 542,69; 9727,544;   -4,920;10046,351; 0,01400
 543,27; 9829,670;   -6,330;10167,798; 0,01468
 543,85;10036,193;   -4,810;10388,679; 0,01498
 544,44;10093,267;   -5,150;10449,095; 0,01504
 545,02;10025,771;   -6,800;10379,799; 0,01506
 545,60; 9742,131;   -4,080;10056,778; 0,01380
 546,18; 9867,893;   -5,450;10183,006; 0,01364
 546,76;10331,430;   -5,470;10669,331; 0,01397
 547,34;11091,415;   -4,320;11423,563; 0,01281
 547,92;11511,498;   -5,950;11837,174; 0,01211
 548,50;11158,021;   -4,330;11440,906; 0,01087
 549,08;11020,775;   -5,670;11273,938; 0,00986
 549,66;11414,197;   -5,770;11678,399; 0,00993
 550,24;11783,004;   -4,150;12047,148; 0,00962
 550,82;12030,040;   -5,960;12326,473; 0,01057
 551,40;12866,972;   -4,560;13231,119; 0,01212
 551,98;13823,883;   -5,010;14199,253; 0,01163
 552,56;13947,176;   -6,440;14319,930; 0,01145
 553,14;14301,722;   -5,020;14637,369; 0,01007
 553,72;14646,423;   -6,200;14954,213; 0,00903
 554,30;14815,188;   -5,600;15148,910; 0,00967
 554,88;15550,039;   -5,550;15896,132; 0,00956
 555,46;16118,771;   -5,820;16469,215; 0,00934
 556,04;16315,600;   -3,920;16649,949; 0,00881
 556,62;16300,101;   -5,860;16652,916; 0,00930
 557,20;16574,119;   -5,800;16892,564; 0,00826
 557,78;16798,258;   -5,140;17089,352; 0,00746
 558,36;16824,313;   -6,740;17043,809; 0,00563
 558,94;17086,887;   -3,920;17308,342; 0,00559
 559,52;17612,809;   -5,830;17859,152; 0,00603
 560,10;18168,961;   -5,880;18437,699; 0,00637
 560,68;18411,553;   -4,620;18693,844; 0,00661
 561,26;18369,854;   -5,190;18653,898; 0,00666
 561,84;18246,936;   -4,800;18550,502; 0,00716
 562,42;18422,355;   -4,920;18759,967; 0,00788
 563,00;18835,266;   -6,120;19202,873; 0,00839
 563,58;19294,992;   -4,760;19681,031; 0,00860
 564,15;19695,395;   -5,270;20019,713; 0,00709
 564,73;20048,498;   -5,360;20316,703; 0,00577
 565,31;20293,918;   -4,660;20562,600; 0,00571
 565,89;20784,721;   -6,120;21073,664; 0,00599
 566,47;21165,900;   -4,380;21477,279; 0,00634
 567,05;21975,689;   -5,210;22297,193; 0,00631
 567,63;22357,711;   -6,040;22703,301; 0,00666
 568,21;23077,701;   -4,350;23503,912; 0,00795
 568,79;23949,129;   -6,050;24473,729; 0,00941
 569,37;25324,453;   -4,640;25894,563; 0,00967
 569,95;25900,822;   -5,100;26469,869; 0,00944
 570,53;26544,668;   -5,800;27153,992; 0,00985
 571,10;27065,975;   -3,870;27633,586; 0,00901
 571,68;27411,201;   -5,810;27977,271; 0,00888
 572,26;26220,811;   -4,720;26796,293; 0,00943
 572,84;27581,639;   -5,400;28175,094; 0,00924
 573,42;28902,979;   -5,810;29495,270; 0,00881
 574,00;29944,730;   -4,240;30509,924; 0,00812
 574,58;29818,158;   -5,440;30318,072; 0,00722
 575,16;28696,594;   -5,440;29164,717; 0,00703
 575,73;28431,271;   -5,240;28925,311; 0,00748
 576,31;30219,623;   -6,110;30739,555; 0,00741
 576,89;31118,391;   -4,920;31666,535; 0,00758
 577,47;33522,598;   -5,040;34123,363; 0,00771
 578,05;32214,354;   -5,760;32744,162; 0,00708
 578,63;29954,691;   -4,920;30523,439; 0,00817
 579,21;30100,758;   -6,180;30779,588; 0,00968
 579,78;31028,537;   -4,690;31789,371; 0,01052
 580,36;31856,148;   -5,550;32639,859; 0,01055
 580,94;35008,043;   -5,950;35849,746; 0,01032
 581,52;35950,375;   -4,670;36747,051; 0,00952
 582,10;33966,859;   -6,350;34701,453; 0,00929
 582,67;31913,936;   -5,340;32587,592; 0,00907
 583,25;31141,713;   -5,390;31717,723; 0,00796
 583,83;31786,250;   -6,790;32338,361; 0,00748
 584,41;33122,406;   -4,160;33663,703; 0,00704
 584,99;34242,918;   -5,170;34739,332; 0,00625
 585,57;33468,820;   -5,090;33981,297; 0,00660
 586,14;32762,502;   -4,860;33314,961; 0,00726
 586,72;33570,492;   -6,220;34127,641; 0,00715
 587,30;33901,188;   -4,530;34460,207; 0,00710
 587,88;33535,531;   -5,030;34004,492; 0,00603
 588,45;33493,574;   -5,990;33907,336; 0,00533
 589,03;33449,336;   -4,390;33885,332; 0,00562
 589,61;33886,867;   -5,740;34420,324; 0,00678
 590,19;34066,348;   -4,400;34627,313; 0,00709
 590,77;34163,594;   -5,250;34759,180; 0,00750
 591,34;34563,281;   -5,670;35223,730; 0,00822
 591,92;35074,641;   -5,110;35730,035; 0,00804
 592,50;36100,551;   -5,260;36735,551; 0,00757
 593,08;36386,852;   -4,700;36902,289; 0,00611
 593,65;36441,129;   -5,240;36735,094; 0,00349
 594,23;36557,199;   -6,250;36797,641; 0,00285
 594,81;37101,875;   -4,800;37396,215; 0,00343
 595,39;37316,273;   -5,410;37673,234; 0,00413
 595,96;37345,457;   -4,860;37772,160; 0,00493
 596,54;37519,715;   -4,390;38027,465; 0,00584
 597,12;37838,250;   -6,330;38298,531; 0,00525
 597,69;37924,238;   -4,300;38348,289; 0,00483
 598,27;38244,527;   -5,350;38721,262; 0,00538
 598,85;38470,145;   -5,330;39058,707; 0,00659
 599,43;38322,289;   -5,270;38981,063; 0,00740
 600,00;38414,156;   -5,730;39159,242; 0,00834
 600,58;38469,813;   -4,530;39198,723; 0,00815
 601,16;38534,840;   -4,710;39231,199; 0,00778
 601,73;38550,273;   -6,520;39221,652; 0,00750
 602,31;38696,391;   -4,800;39373,781; 0,00754
 602,89;38867,977;   -5,930;39566,102; 0,00773
 603,46;38869,320;   -5,600;39651,043; 0,00865
 604,04;38996,406;   -4,900;39702,535; 0,00779
 604,62;39191,230;   -6,480;39754,285; 0,00619
 605,19;39452,961;   -4,210;39968,766; 0,00564
 605,77;39682,516;   -5,590;40305,723; 0,00677
 606,35;39683,063;   -5,450;40294,816; 0,00664
 606,92;39750,297;   -4,330;40422,152; 0,00728
 607,50;39676,246;   -6,650;40457,551; 0,00847
 608,08;39734,859;   -4,450;40486,551; 0,00814
 608,65;39940,004;   -5,010;40560,004; 0,00669
 609,23;40048,551;   -5,770;40674,465; 0,00673
 609,81;40383,262;   -4,680;41057,016; 0,00719
 610,38;40427,016;   -6,050;41072,566; 0,00688
 610,96;40551,457;   -4,990;41157,012; 0,00644
 611,54;40699,992;   -5,290;41272,629; 0,00607
 612,11;40758,719;   -6,420;41301,355; 0,00574
 612,69;40762,094;   -4,440;41299,539; 0,00569
 613,26;40809,152;   -5,580;41357,289; 0,00579
 613,84;40914,363;   -5,360;41465,719; 0,00581
 614,42;41016,578;   -5,130;41504,223; 0,00513
 614,99;41084,527;   -5,870;41550,898; 0,00490
 615,57;41019,668;   -4,540;41455,078; 0,00459
 616,14;40918,535;   -5,560;41386,004; 0,00493
 616,72;40837,238;   -5,300;41313,121; 0,00503
 617,30;40865,617;   -4,970;41369,941; 0,00533
 617,87;40881,605;   -5,150;41364,266; 0,00510
 618,45;40720,629;   -4,960;41170,688; 0,00477
 619,02;40808,086;   -5,110;41324,273; 0,00546
 619,60;41098,090;   -5,690;41602,137; 0,00529
 620,17;41087,465;   -4,520;41580,281; 0,00518
 620,75;40947,633;   -6,620;41478,359; 0,00559
 621,33;41195,656;   -4,900;41681,383; 0,00509
 621,90;41364,582;   -4,770;41776,563; 0,00430
 622,48;41484,820;   -5,860;41907,781; 0,00440
 623,05;41706,395;   -4,270;42272,793; 0,00586
 623,63;41737,676;   -6,000;42414,781; 0,00699
 624,20;41932,059;   -5,590;42579,238; 0,00665
 624,78;41922,129;   -5,260;42525,105; 0,00620
 625,35;41986,898;   -6,340;42635,160; 0,00665
 625,93;41982,758;   -5,120;42651,172; 0,00686
 626,50;42036,398;   -5,740;42782,672; 0,00764
 627,08;42324,766;   -5,240;43077,070; 0,00765
 627,66;42567,570;   -4,100;43148,270; 0,00588
 628,23;42784,875;   -6,160;43287,887; 0,00508
 628,81;43159,570;   -4,770;43746,469; 0,00587
 629,38;43491,137;   -4,780;44123,727; 0,00627
 629,96;43724,145;   -6,040;44351,344; 0,00618
 630,53;43907,840;   -4,770;44452,305; 0,00535
 631,11;44217,336;   -5,510;44697,875; 0,00469
 631,68;44486,238;   -4,370;44942,480; 0,00443
 632,26;44611,586;   -5,410;45037,629; 0,00413
 632,83;44926,992;   -6,220;45301,621; 0,00361
 633,40;45361,414;   -3,970;45658,324; 0,00283
 633,98;45668,293;   -5,590;45888,664; 0,00209
 634,55;45743,723;   -5,170;46020,223; 0,00262
 635,13;45973,750;   -4,380;46303,340; 0,00310
 635,70;46257,555;   -5,790;46521,895; 0,00247
 636,28;46370,352;   -4,500;46633,289; 0,00246
 636,85;46409,105;   -5,660;46828,344; 0,00391
 637,43;46547,930;   -5,810;47007,523; 0,00427
 638,00;46710,969;   -4,120;47098,035; 0,00358
 638,58;46816,703;   -5,750;47166,254; 0,00323
 639,15;46932,195;   -5,180;47379,520; 0,00412
 639,73;47063,789;   -5,230;47556,949; 0,00453
 640,30;47118,891;   -5,920;47585,520; 0,00428
 640,87;47133,000;   -4,050;47650,848; 0,00475
 641,45;47273,898;   -6,200;47816,988; 0,00496
 642,02;47407,277;   -4,570;47899,559; 0,00449
 642,60;47416,059;   -4,730;47902,922; 0,00444
 643,17;47448,977;   -5,530;48063,902; 0,00559
 643,74;47515,992;   -3,700;48247,645; 0,00664
 644,32;47548,203;   -5,840;48323,754; 0,00703
 644,89;47567,871;   -5,160;48335,914; 0,00696
 645,47;47641,848;   -4,850;48437,156; 0,00719
 646,04;47761,492;   -6,370;48468,105; 0,00638
 646,61;47880,000;   -5,150;48500,707; 0,00559
 647,19;47977,715;   -4,920;48604,988; 0,00564
 647,76;48289,680;   -6,600;48915,938; 0,00560
 648,34;48528,422;   -4,100;49095,109; 0,00504
 648,91;48574,805;   -6,220;49167,340; 0,00526
 649,48;48486,234;   -4,920;49147,641; 0,00588
 650,06;48448,473;   -4,990;49225,902; 0,00691
 650,63;48436,895;   -5,780;49305,941; 0,00772
 651,20;48333,195;   -4,950;49265,582; 0,00830
 651,78;48387,609;   -5,580;49341,824; 0,00848
 652,35;48574,293;   -4,590;49402,473; 0,00734
 652,92;48752,945;   -5,540;49474,984; 0,00638
 653,50;48833,055;   -6,060;49629,094; 0,00702
 654,07;49019,559;   -3,950;49876,934; 0,00753
 654,64;49995,520;   -5,910;50817,258; 0,00708
 655,22;57720,273;   -5,350;58472,027; 0,00562
 655,79;64582,715;   -3,980;64572,797;-0,00007
 656,36;56006,051;   -5,650;56344,859; 0,00262
 656,94;51324,652;   -5,130;51559,078; 0,00198
 657,51;51100,992;   -5,710;51305,980; 0,00174
 658,08;51310,238;   -5,600;51675,742; 0,00308
 658,66;51563,523;   -5,040;52084,883; 0,00437
 659,23;51790,160;   -5,190;52418,320; 0,00524
 659,80;51819,234;   -4,870;52566,664; 0,00622
 660,38;51900,156;   -5,200;52735,613; 0,00693
 660,95;52066,047;   -5,930;52889,004; 0,00681
 661,52;52170,668;   -4,520;52985,855; 0,00673
 662,09;52183,750;   -5,380;53089,926; 0,00748
 662,67;52180,813;   -5,670;53146,555; 0,00796
 663,24;52231,887;   -4,750;53142,309; 0,00750
 663,81;52274,363;   -6,270;52961,277; 0,00567
 664,39;52237,078;   -4,940;52779,398; 0,00449
 664,96;52316,570;   -5,130;52802,051; 0,00401
 665,53;52487,105;   -4,930;52902,211; 0,00342
 666,10;52547,480;   -5,000;52911,441; 0,00300
 666,68;52441,602;   -6,390;52812,461; 0,00306
 667,25;52373,758;   -4,640;52835,773; 0,00381
 667,82;52417,262;   -4,890;52942,453; 0,00433
 668,39;52522,688;   -5,850;53098,434; 0,00473
 668,96;52510,285;   -4,160;53041,926; 0,00437
 669,54;52491,258;   -5,580;53011,684; 0,00428
 670,11;52507,172;   -4,370;52992,336; 0,00399
 670,68;52542,691;   -5,230;52958,188; 0,00342
 671,25;52641,676;   -5,800;52898,617; 0,00211
 671,83;52730,219;   -3,770;52870,539; 0,00115
 672,40;52851,609;   -5,570;52917,797; 0,00054
 672,97;52842,844;   -5,250;52937,938; 0,00078
 673,54;52873,895;   -4,990;53142,699; 0,00220
 674,11;52904,512;   -6,200;53274,672; 0,00303
 674,69;52944,516;   -4,770;53413,672; 0,00383
 675,26;52963,695;   -5,620;53462,781; 0,00407
 675,83;52900,254;   -5,590;53466,273; 0,00462
 676,40;52931,293;   -4,090;53556,262; 0,00510
 676,97;53092,637;   -6,690;53673,195; 0,00472
 677,54;53294,949;   -4,540;53754,574; 0,00373
 678,12;53427,566;   -4,810;53857,434; 0,00348
 678,69;53468,387;   -5,350;53919,156; 0,00365
 679,26;53506,938;   -5,420;54006,488; 0,00404
 679,83;53487,453;   -5,920;53970,766; 0,00391
 680,40;53422,980;   -4,990;53875,629; 0,00366
 680,97;53465,637;   -4,670;53898,168; 0,00350
 681,55;53614,707;   -5,890;54017,148; 0,00325
 682,12;53766,309;   -4,620;54087,801; 0,00259
 682,69;53841,441;   -5,970;54125,910; 0,00229
 683,26;53889,762;   -5,110;54236,293; 0,00278
 683,83;53847,672;   -5,410;54315,633; 0,00376
 684,40;53810,637;   -5,760;54427,574; 0,00495
 684,97;53861,508;   -4,860;54484,203; 0,00499
 685,54;53975,305;   -5,010;54736,113; 0,00608
 686,12;54216,305;   -4,970;54954,207; 0,00587
 686,69;54588,832;   -4,600;55180,145; 0,00468
 687,26;54910,086;   -5,990;55324,887; 0,00327
 687,83;55025,520;   -4,340;55409,828; 0,00302
 688,40;55048,961;   -5,250;55497,566; 0,00352
 688,97;55142,492;   -5,860;55630,688; 0,00383
 689,54;55266,488;   -4,480;55780,180; 0,00402
 690,11;55428,492;   -5,830;56042,270; 0,00478
 690,68;55842,590;   -4,780;56410,563; 0,00439
 691,25;56257,027;   -4,980;56771,590; 0,00395
 691,82;56366,859;   -5,510;56815,203; 0,00344
 692,40;56308,754;   -4,100;56780,531; 0,00362
 692,97;56330,586;   -5,800;56802,582; 0,00362
 693,54;56408,793;   -5,010;56760,465; 0,00270
 694,11;56496,250;   -4,870;56674,516; 0,00137
 694,68;56430,281;   -6,010;56534,938; 0,00080
 695,25;56323,047;   -4,170;56454,918; 0,00102
 695,82;56285,203;   -5,250;56472,379; 0,00144
 696,39;56231,371;   -5,600;56422,078; 0,00147
 696,96;56267,320;   -4,580;56513,289; 0,00189
 697,53;56210,918;   -5,990;56442,141; 0,00178
 698,10;56191,445;   -4,230;56428,031; 0,00182
 698,67;56139,191;   -5,080;56439,332; 0,00232
 699,24;56007,352;   -6,000;56309,180; 0,00233
 699,81;55857,094;   -4,500;56140,813; 0,00220
 700,38;55754,605;   -5,590;56022,441; 0,00208
 700,95;55673,785;   -5,260;55884,754; 0,00164
 701,52;55577,465;   -4,160;55761,586; 0,00144
 702,09;55384,832;   -5,470;55703,094; 0,00249
 702,66;55167,582;   -4,220;55594,145; 0,00334
 703,23;55110,977;   -5,580;55568,676; 0,00359
 703,80;55214,344;   -5,610;55561,027; 0,00272
 704,37;55319,121;   -4,490;55445,277; 0,00099
 704,94;55185,578;   -5,070;55340,578; 0,00122
 705,51;55166,625;   -4,470;55330,398; 0,00129
 706,08;55293,707;   -5,760;55439,031; 0,00114
 706,65;55315,359;   -5,710;55539,633; 0,00176
 707,22;55249,594;   -4,760;55687,750; 0,00343
 707,79;55179,621;   -5,360;55778,883; 0,00469
 708,36;55222,734;   -5,000;55863,742; 0,00501
 708,93;55238,309;   -5,570;55845,074; 0,00474
 709,50;55168,199;   -6,330;55824,113; 0,00513
 710,06;55072,781;   -4,180;55630,684; 0,00438
 710,63;54948,027;   -5,760;55549,496; 0,00473
 711,20;54839,910;   -5,240;55418,648; 0,00456
 711,77;54744,832;   -4,420;55282,219; 0,00424
 712,34;54612,816;   -6,100;55081,227; 0,00371
 712,91;54517,008;   -4,160;54990,848; 0,00376
 713,48;54538,684;   -5,020;54975,508; 0,00346
 714,05;54423,047;   -5,660;54952,422; 0,00420
 714,62;54117,102;   -4,940;54741,563; 0,00498
 715,19;53749,520;   -6,210;54531,391; 0,00627
 715,76;53532,359;   -5,220;54385,891; 0,00687
 716,33;53440,887;   -4,830;54298,793; 0,00692
 716,89;53458,160;   -5,720;54202,875; 0,00601
 717,46;53445,961;   -4,040;54156,773; 0,00574
 718,03;53464,641;   -6,020;54287,184; 0,00663
 718,60;53483,211;   -4,640;54363,645; 0,00709
 719,17;53641,566;   -5,230;54394,945; 0,00606
 719,74;53688,371;   -5,640;54231,988; 0,00437
 720,31;53612,496;   -4,900;54073,207; 0,00372
 720,88;53466,012;   -4,900;53863,547; 0,00322
 721,44;53308,855;   -4,610;53577,031; 0,00218
 722,01;53292,211;   -4,310;53551,441; 0,00211
 722,58;53349,070;   -5,890;53618,902; 0,00219
 723,15;53484,574;   -4,510;53777,820; 0,00237
 723,72;53640,691;   -5,640;53920,602; 0,00226
 724,29;53782,078;   -5,420;54024,512; 0,00195
 724,85;53904,563;   -4,410;54027,254; 0,00099
 725,42;53977,191;   -6,320;54016,355; 0,00031
 725,99;53963,000;   -4,410;54020,965; 0,00047
 726,56;53968,906;   -5,050;54174,234; 0,00165
 727,13;53883,516;   -5,170;54127,207; 0,00196
 727,69;53854,145;   -4,440;54185,098; 0,00266
 728,26;53686,449;   -5,410;54102,457; 0,00335
 728,83;53462,555;   -4,660;53968,707; 0,00409
 729,40;53292,746;   -4,880;53868,598; 0,00467
 729,97;53372,754;   -6,320;53924,762; 0,00447
 730,53;53514,395;   -4,700;53969,789; 0,00368
 731,10;53609,445;   -5,120;53895,031; 0,00231
 731,67;53669,547;   -5,170;53900,523; 0,00186
 732,24;53708,984;   -4,780;54028,293; 0,00257
 732,81;53949,168;   -5,800;54234,664; 0,00229
 733,37;54289,477;   -4,110;54379,195; 0,00072
 733,94;54536,918;   -4,930;54535,855;-0,00001
 734,51;54557,219;   -5,480;54492,875;-0,00051
 735,08;54660,293;   -3,950;54455,906;-0,00163
 735,64;54753,480;   -6,280;54465,336;-0,00229
 736,21;54675,453;   -5,360;54459,816;-0,00172
 736,78;54589,219;   -5,530;54466,078;-0,00098
 737,35;54549,844;   -5,890;54520,430;-0,00023
 737,91;54475,699;   -3,990;54649,180; 0,00138
 738,48;54351,852;   -5,980;54695,020; 0,00273
 739,05;54228,328;   -5,130;54620,453; 0,00313
 739,61;53954,727;   -4,540;54293,582; 0,00272
 740,18;53784,320;   -6,190;54036,922; 0,00203
 740,75;53633,082;   -4,450;53768,945; 0,00110
 741,32;53415,746;   -5,740;53400,926;-0,00012
 741,88;53315,563;   -5,270;53121,484;-0,00158
 742,45;53276,785;   -4,430;52951,098;-0,00266
 743,02;53146,715;   -6,060;52842,066;-0,00250
 743,58;53014,949;   -4,520;52760,297;-0,00209
 744,15;52968,754;   -5,040;52702,367;-0,00219
 744,72;52921,590;   -5,760;52631,680;-0,00239
 745,28;52986,133;   -3,920;52613,820;-0,00306
 745,85;53034,863;   -5,540;52625,180;-0,00337
 746,42;53019,637;   -5,120;52712,082;-0,00253
 746,98;52988,715;   -4,540;52824,953;-0,00134
 747,55;52802,836;   -5,300;52733,031;-0,00057
 748,12;52666,629;   -4,620;52601,094;-0,00054
 748,68;52694,902;   -5,510;52624,734;-0,00058
 749,25;52779,965;   -4,720;52695,625;-0,00069
 749,82;52891,305;   -5,180;52787,695;-0,00085
 750,38;52799,516;   -6,250;52706,777;-0,00076
 750,95;52703,828;   -4,130;52579,156;-0,00103
 751,52;52645,391;   -5,840;52595,156;-0,00041
 752,08;52571,590;   -4,980;52617,867; 0,00038
 752,65;52564,070;   -4,620;52637,098; 0,00060
 753,21;52672,266;   -5,300;52778,000; 0,00087
 753,78;52661,582;   -4,260;52796,602; 0,00111
 754,35;52626,004;   -4,920;52743,609; 0,00097
 754,91;52633,063;   -5,600;52825,070; 0,00158
 755,48;52592,660;   -4,040;52862,871; 0,00223
 756,04;52590,355;   -5,270;52917,441; 0,00269
 756,61;52623,156;   -4,060;53027,785; 0,00333
 757,18;52807,879;   -5,000;53175,754; 0,00301
 757,74;52698,824;   -5,300;52974,406; 0,00226
 758,31;52399,949;   -4,720;52666,664; 0,00220
 758,87;52322,016;   -5,430;52693,727; 0,00307
 759,44;52277,859;   -4,500;52722,727; 0,00368
 760,00;52289,719;   -4,500;52820,609; 0,00439
 760,57;52250,961;   -6,210;52831,039; 0,00479
 761,14;52053,523;   -4,420;52690,371; 0,00528
 761,70;51767,293;   -5,690;52517,129; 0,00624
 762,27;51646,457;   -5,200;52530,332; 0,00737
 762,83;51777,680;   -4,930;52634,453; 0,00713
 763,40;51927,246;   -6,140;52779,820; 0,00707
 763,96;52073,848;   -4,610;52898,762; 0,00683
 764,53;52220,559;   -4,970;52917,043; 0,00575
 765,09;52073,336;   -4,580;52556,324; 0,00401
 765,66;52048,113;   -4,970;52263,504; 0,00179
 766,22;52157,051;   -5,830;52099,035;-0,00048
 766,79;52136,988;   -4,440;51991,207;-0,00122
 767,35;52140,543;   -4,740;51952,535;-0,00157
 767,92;52276,566;   -5,950;52090,758;-0,00155
 768,48;52527,641;   -4,490;52303,820;-0,00185
 769,05;52585,238;   -5,530;52278,590;-0,00254
 769,61;52643,098;   -5,470;52242,238;-0,00332
 770,18;52745,285;   -4,880;52365,719;-0,00314
 770,74;52703,609;   -6,380;52356,102;-0,00287
 771,31;52664,383;   -4,920;52347,980;-0,00262
 771,87;52472,762;   -4,440;52304,852;-0,00139
 772,44;52374,734;   -5,390;52400,414; 0,00021
 773,00;52207,453;   -4,560;52330,844; 0,00103
 773,57;52170,195;   -5,560;52367,004; 0,00164
 774,13;52057,035;   -4,850;52443,406; 0,00321
 774,70;52139,906;   -5,290;52650,727; 0,00423
 775,26;52178,125;   -5,490;52690,957; 0,00425
 775,82;52224,480;   -4,000;52713,086; 0,00404
 776,39;52170,668;   -5,180;52664,699; 0,00409
 776,95;52166,016;   -5,000;52573,488; 0,00338
 777,52;52189,297;   -4,920;52444,012; 0,00211
 778,08;52239,285;   -5,910;52315,570; 0,00063
 778,65;52171,277;   -4,880;52211,332; 0,00033
 779,21;52101,063;   -5,660;52271,434; 0,00142
 779,77;51956,930;   -4,890;52282,281; 0,00271
 780,34;51910,152;   -5,210;52342,055; 0,00360
 780,90;52075,113;   -6,010;52501,234; 0,00354
 781,47;52133,340;   -4,460;52462,285; 0,00273
 782,03;52227,125;   -4,930;52465,207; 0,00198
 782,59;52118,477;   -4,570;52360,477; 0,00201
 783,16;52018,633;   -4,980;52208,926; 0,00159
 783,72;51856,781;   -5,700;51991,406; 0,00113
 784,29;51710,684;   -5,110;51824,199; 0,00095
 784,85;51704,301;   -5,200;51949,711; 0,00206
 785,41;51680,246;   -6,150;52112,781; 0,00362
 785,98;51625,715;   -3,860;52233,621; 0,00508
 786,54;51713,160;   -5,430;52447,750; 0,00613
 787,10;51822,371;   -4,600;52546,832; 0,00603
 787,67;51794,328;   -4,340;52573,012; 0,00648
 788,23;51686,313;   -6,290;52508,664; 0,00685
 788,79;51542,813;   -3,630;52306,023; 0,00638
 789,36;51321,379;   -5,470;51966,516; 0,00542
 789,92;51295,059;   -5,160;51792,105; 0,00419
 790,48;51308,242;   -5,230;51716,047; 0,00344
 791,05;51365,988;   -6,260;51699,828; 0,00281
 791,61;51289,848;   -3,670;51566,609; 0,00234
 792,17;51279,285;   -5,600;51440,727; 0,00136
 792,74;51268,816;   -5,580;51227,090;-0,00035
 793,30;51275,500;   -3,910;51134,621;-0,00119
 793,86;51135,777;   -5,880;51106,660;-0,00025
 794,43;50738,863;   -4,860;50886,813; 0,00126
 794,99;50398,684;   -4,300;50626,852; 0,00196
 795,55;49990,852;   -5,690;50288,902; 0,00258
 796,11;49764,211;   -4,130;50083,164; 0,00277
 796,68;49670,027;   -5,710;50050,035; 0,00331
 797,24;49701,664;   -4,890;50014,543; 0,00273
 797,80;49646,344;   -4,850;49862,586; 0,00189
 798,36;49460,313;   -5,860;49668,734; 0,00183
 798,93;49318,230;   -3,930;49601,469; 0,00249
 799,49;49152,211;   -5,840;49537,527; 0,00339
 800,05;48990,348;   -4,760;49434,789; 0,00392
 800,61;48776,445;   -4,770;49325,660; 0,00486
 801,18;48566,027;   -5,430;49138,820; 0,00509
 801,74;48359,961;   -3,630;48909,262; 0,00490
 802,30;48369,898;   -4,900;48814,141; 0,00397
 802,86;48409,691;   -5,600;48675,980; 0,00238
 803,43;48418,422;   -4,510;48509,563; 0,00082
 803,99;48343,879;   -5,760;48313,254;-0,00028
 804,55;48201,648;   -4,860;48129,664;-0,00065
 805,11;48002,898;   -5,340;47821,055;-0,00165
 805,68;48007,652;   -5,870;47769,117;-0,00216
 806,24;47862,484;   -3,690;47608,676;-0,00231
 806,80;47569,914;   -5,420;47337,957;-0,00212
 807,36;47354,703;   -4,940;47104,098;-0,00230
 807,92;47280,445;   -4,600;47015,918;-0,00244
 808,48;47215,398;   -6,390;47006,617;-0,00192
 809,05;47126,371;   -4,330;46979,129;-0,00136
 809,61;47260,035;   -4,870;47057,012;-0,00187
 810,17;47330,051;   -5,390;46995,723;-0,00308
 810,73;47323,086;   -4,370;46897,820;-0,00392
 811,29;47271,516;   -5,230;46866,594;-0,00374
 811,85;47144,863;   -4,290;46904,953;-0,00222
 812,42;47139,488;   -5,740;47009,734;-0,00120
 812,98;47220,789;   -5,410;47180,484;-0,00037
 813,54;47231,711;   -4,210;47197,605;-0,00031
 814,10;47062,406;   -5,950;46991,508;-0,00065
 814,66;46891,070;   -4,950;46831,668;-0,00055
 815,22;46724,949;   -4,620;46730,988; 0,00006
 815,78;46676,402;   -5,900;46690,738; 0,00013
 816,35;46855,887;   -4,310;46751,230;-0,00097
 816,91;46948,047;   -5,340;46730,398;-0,00202
 817,47;46744,172;   -4,930;46521,859;-0,00207
 818,03;46526,898;   -4,430;46358,902;-0,00157
 818,59;46365,254;   -5,850;46258,883;-0,00100
 819,15;46416,652;   -4,110;46381,781;-0,00033
 819,71;46453,121;   -5,030;46446,523;-0,00006
 820,27;46638,547;   -5,560;46632,203;-0,00006
 820,83;46833,336;   -4,830;46809,684;-0,00022
 821,39;46857,430;   -6,080;46836,734;-0,00019
 821,96;46979,492;   -3,930;46938,027;-0,00038
 822,52;47232,797;   -5,140;47149,086;-0,00077
 823,08;47357,047;   -5,700;47226,988;-0,00119
 823,64;47498,719;   -3,980;47231,398;-0,00245
 824,20;47464,172;   -5,200;47094,480;-0,00340
 824,76;47556,383;   -4,420;47164,238;-0,00360
 825,32;47689,926;   -4,420;47395,219;-0,00269
 825,88;47688,539;   -5,780;47512,262;-0,00161
 826,44;47734,730;   -3,910;47663,480;-0,00065
 827,00;47902,762;   -5,540;47948,871; 0,00042
 827,56;47864,203;   -5,470;47994,785; 0,00118
 828,12;47855,219;   -4,730;47974,215; 0,00108
 828,68;47943,977;   -5,710;48113,195; 0,00153
 829,24;47951,121;   -4,230;48211,836; 0,00235
 829,80;47986,656;   -5,810;48226,758; 0,00217
 830,36;47847,980;   -5,030;48050,168; 0,00183
 830,92;47724,926;   -4,030;47890,617; 0,00151
 831,48;47724,191;   -5,850;47778,039; 0,00049
 832,04;47563,348;   -4,420;47610,918; 0,00043
 832,60;47357,801;   -4,840;47423,941; 0,00061
 833,16;47341,754;   -5,940;47473,770; 0,00121
 833,72;47336,891;   -4,150;47516,582; 0,00165
 834,28;47297,590;   -4,890;47526,512; 0,00210
 834,84;47142,637;   -5,250;47415,434; 0,00251
 835,40;47007,406;   -5,110;47363,762; 0,00328
 835,96;46934,629;   -5,810;47374,453; 0,00405
 836,52;46882,414;   -4,270;47373,566; 0,00453
 837,08;46860,500;   -5,830;47331,305; 0,00434
 837,64;46958,613;   -4,900;47334,176; 0,00346
 838,20;46856,617;   -4,760;47276,559; 0,00387
 838,76;46703,098;   -5,870;47149,277; 0,00413
 839,32;46594,555;   -4,650;46985,398; 0,00363
 839,88;46510,328;   -4,910;46802,598; 0,00272
 840,43;46400,602;   -5,550;46688,258; 0,00268
 840,99;46272,813;   -2,640;46621,699; 0,00326
 841,55;46132,316;   -5,850;46603,691; 0,00441
 842,11;46077,285;   -4,370;46663,871; 0,00549
 842,67;45910,453;   -5,010;46640,363; 0,00685
 843,23;45797,289;   -5,420;46567,102; 0,00724
 843,79;45854,938;   -3,850;46563,434; 0,00666
 844,35;45903,672;   -5,310;46559,965; 0,00616
 844,91;45907,633;   -5,110;46432,656; 0,00494
 845,47;45933,773;   -4,700;46302,707; 0,00347
 846,03;45890,160;   -5,830;46101,598; 0,00200
 846,58;45832,980;   -4,030;46023,359; 0,00180
 847,14;45859,086;   -4,980;46098,707; 0,00226
 847,70;45888,027;   -5,090;46163,910; 0,00260
 848,26;45823,223;   -4,070;46160,891; 0,00319
 848,82;45811,207;   -5,870;46189,660; 0,00357
 849,38;45720,836;   -3,930;46157,582; 0,00413
 849,94;45610,445;   -4,990;46147,531; 0,00508
 850,49;45437,078;   -5,600;46143,730; 0,00670
 851,05;45251,480;   -4,120;46068,984; 0,00778
 851,61;45124,570;   -5,590;45976,633; 0,00812
 852,17;45088,023;   -4,660;45857,996; 0,00735
 852,73;45216,742;   -4,230;45810,555; 0,00567
 853,29;45094,379;   -4,950;45574,656; 0,00460
 853,84;44776,488;   -3,910;45247,258; 0,00454
 854,40;44739,906;   -5,740;45229,746; 0,00473
 854,96;44670,602;   -5,430;45157,879; 0,00471
 855,52;44667,629;   -5,010;45072,789; 0,00392
 856,08;44652,520;   -5,700;44973,918; 0,00311
 856,63;44587,020;   -4,360;44856,309; 0,00261
 857,19;44433,258;   -5,340;44770,371; 0,00328
 857,75;44353,805;   -5,540;44752,082; 0,00388
 858,31;44366,180;   -4,320;44752,023; 0,00376
 858,86;44498,262;   -6,050;44820,563; 0,00313
 859,42;44550,020;   -4,420;44819,313; 0,00262
 859,98;44601,090;   -4,640;44817,945; 0,00211
 860,54;44543,711;   -5,270;44723,824; 0,00175
 861,10;44521,180;   -4,280;44642,906; 0,00119
 861,65;44623,117;   -5,510;44692,176; 0,00067
 862,21;44748,320;   -4,430;44828,637; 0,00078
 862,77;44903,063;   -4,360;45059,250; 0,00151
 863,32;45114,266;   -5,370;45315,188; 0,00193
 863,88;45204,723;   -3,900;45360,109; 0,00149
 864,44;45215,527;   -5,350;45382,379; 0,00160
 865,00;45125,656;   -4,560;45356,152; 0,00221
 865,55;45075,215;   -4,830;45448,352; 0,00358
 866,11;45140,473;   -5,270;45598,023; 0,00438
 866,67;45299,008;   -3,830;45741,504; 0,00422
 867,23;45384,402;   -5,370;45773,875; 0,00371
 867,78;45529,953;   -4,880;45879,016; 0,00332
 868,34;45453,313;   -4,490;45810,285; 0,00340
 868,90;45515,684;   -5,890;45904,367; 0,00369
 869,45;45673,172;   -4,560;46062,938; 0,00369
 870,01;45855,066;   -4,590;46258,367; 0,00380
 870,57;46115,477;   -5,700;46510,289; 0,00370
 871,12;46305,586;   -4,360;46539,797; 0,00219
 871,68;46242,875;   -5,430;46370,090; 0,00119
 872,24;46142,461;   -4,710;46199,070; 0,00053
 872,79;46152,555;   -4,830;46137,730;-0,00014
 873,35;45993,316;   -5,710;45989,113;-0,00004
 873,91;45795,281;   -4,570;45821,504; 0,00025
 874,46;45641,727;   -5,140;45744,281; 0,00097
 875,02;45347,625;   -4,900;45446,875; 0,00095
 875,57;44996,188;   -4,830;45195,086; 0,00192
 876,13;44606,793;   -6,140;44957,977; 0,00341
 876,69;44343,828;   -4,290;44856,164; 0,00499
 877,24;43986,020;   -4,730;44628,977; 0,00630
 877,80;43881,184;   -5,730;44519,789; 0,00627
 878,36;43746,898;   -3,990;44335,008; 0,00580
 878,91;43538,543;   -6,200;44009,379; 0,00467
 879,47;43280,895;   -4,300;43661,148; 0,00380
 880,02;42996,910;   -4,730;43264,531; 0,00269
 880,58;42715,215;   -5,710;42964,012; 0,00252
 881,14;42524,055;   -4,300;42801,293; 0,00282
 881,69;42311,000;   -5,540;42638,871; 0,00335
 882,25;42078,363;   -4,810;42424,434; 0,00356
 882,80;41883,914;   -4,620;42220,305; 0,00347
 883,36;41651,203;   -5,330;41997,516; 0,00360
 883,91;41429,066;   -4,350;41845,754; 0,00435
 884,47;41156,176;   -5,010;41666,957; 0,00536
 885,03;40988,301;   -4,780;41602,965; 0,00646
 885,58;40882,293;   -4,500;41630,348; 0,00787
 886,14;40804,836;   -5,350;41598,578; 0,00837
 886,69;40783,180;   -4,200;41572,230; 0,00832
 887,25;40745,281;   -4,360;41456,098; 0,00751
 887,80;40599,430;   -5,200;41249,910; 0,00690
 888,36;40410,777;   -4,620;41080,129; 0,00713
 888,91;40120,996;   -5,870;40849,613; 0,00782
 889,47;39978,742;   -3,960;40711,512; 0,00789
 890,02;39883,867;   -4,760;40685,281; 0,00864
 890,58;39853,879;   -5,580;40660,043; 0,00870
 891,13;39697,066;   -4,110;40494,324; 0,00863
 891,69;39583,539;   -4,870;40357,566; 0,00841
 892,24;39338,793;   -5,350;40085,125; 0,00816
 892,80;39300,840;   -4,930;40030,227; 0,00799
 893,35;39268,367;   -5,540;39972,957; 0,00772
 893,91;39325,242;   -4,320;39911,430; 0,00643
 894,46;39404,625;   -5,440;39807,359; 0,00442
 895,02;39366,117;   -5,290;39632,348; 0,00293
 895,57;39200,066;   -4,810;39394,219; 0,00215
 896,13;38951,496;   -5,490;39071,391; 0,00133
 896,68;38727,656;   -4,380;38833,742; 0,00119
 897,23;38468,414;   -5,620;38624,164; 0,00175
 897,79;38311,141;   -5,110;38546,781; 0,00266
 898,34;38124,059;   -4,430;38385,844; 0,00297
 898,90;37980,844;   -5,700;38236,563; 0,00291
 899,45;37787,340;   -4,690;38045,914; 0,00296
 900,01;37583,043;   -4,660;37832,105; 0,00287
 900,56;37448,906;   -5,400;37749,027; 0,00347
 901,11;37210,531;   -4,250;37570,598; 0,00418
 901,67;37063,078;   -5,080;37483,520; 0,00490
 902,22;37000,871;   -4,580;37417,340; 0,00486
 902,78;36816,988;   -4,960;37204,230; 0,00454
 903,33;36610,074;   -5,420;37001,102; 0,00461
 903,89;36379,461;   -4,180;36763,699; 0,00456
 904,44;36149,461;   -5,590;36514,262; 0,00436
 904,99;35959,012;   -4,900;36307,672; 0,00419
 905,55;35797,098;   -3,810;36095,023; 0,00360
 906,10;35768,426;   -5,320;35978,445; 0,00254
 906,65;35789,910;   -4,430;35987,605; 0,00239
 907,21;35745,266;   -5,020;35950,664; 0,00249
 907,76;35569,375;   -6,040;35809,414; 0,00292
 908,31;35448,895;   -4,720;35687,758; 0,00292
 908,87;35257,066;   -5,410;35513,926; 0,00315
 909,42;35121,938;   -4,270;35378,656; 0,00316
 909,97;34996,281;   -5,080;35285,348; 0,00357
 910,53;35053,172;   -5,040;35351,680; 0,00368
 911,08;35070,691;   -4,100;35291,000; 0,00272
 911,63;35043,148;   -5,170;35258,211; 0,00266
 912,19;34893,133;   -5,170;35114,121; 0,00274
 912,74;34775,457;   -4,790;35013,012; 0,00296
 913,29;34606,469;   -5,690;34964,969; 0,00448
 913,85;34450,824;   -4,260;34891,480; 0,00552
 914,40;34384,859;   -5,130;34884,730; 0,00627
 914,95;34271,555;   -5,100;34766,730; 0,00623
 915,51;34235,117;   -4,610;34746,219; 0,00643
 916,06;34088,461;   -5,800;34592,352; 0,00637
 916,61;33954,891;   -4,260;34411,578; 0,00580
 917,16;33755,109;   -4,400;34137,148; 0,00489
 917,72;33631,938;   -5,760;33917,602; 0,00367
 918,27;33469,742;   -4,310;33724,090; 0,00329
 918,82;33304,793;   -5,450;33530,449; 0,00293
 919,37;33152,227;   -4,780;33333,160; 0,00236
 919,93;33003,965;   -4,860;33180,512; 0,00232
 920,48;32682,713;   -4,640;32868,578; 0,00246
 921,03;32406,229;   -3,770;32585,740; 0,00240
 921,58;32057,191;   -5,040;32267,680; 0,00284
 922,14;31680,922;   -4,960;31956,641; 0,00376
 922,69;31465,521;   -4,410;31839,369; 0,00513
 923,24;31267,193;   -5,850;31699,439; 0,00596
 923,79;31074,051;   -4,130;31555,080; 0,00667
 924,35;30965,070;   -4,550;31323,869; 0,00500
 924,90;30862,891;   -4,880;31128,369; 0,00372
 925,45;30686,268;   -4,340;30828,119; 0,00200
 926,00;30552,941;   -5,400;30632,189; 0,00112
 926,55;30404,389;   -3,930;30476,600; 0,00103
 927,11;30271,746;   -5,510;30328,369; 0,00081
 927,66;30072,588;   -5,520;30101,160; 0,00041
 928,21;29810,773;   -3,870;29796,779;-0,00020
 928,76;29628,279;   -5,350;29629,131; 0,00001
 929,31;29316,428;   -4,280;29388,230; 0,00106
 929,86;28968,621;   -4,430;29093,311; 0,00187
 930,42;28706,705;   -5,510;28926,721; 0,00332
 930,97;28443,053;   -4,000;28740,529; 0,00452
 931,52;28221,221;   -5,160;28633,230; 0,00629
 932,07;28019,809;   -5,070;28511,000; 0,00755
 932,62;27828,289;   -4,170;28337,820; 0,00788
 933,17;27638,219;   -6,110;28145,641; 0,00790
 933,72;27430,877;   -4,370;27914,939; 0,00760
 934,28;27246,414;   -4,820;27693,689; 0,00707
 934,83;27090,146;   -5,410;27529,439; 0,00698
 935,38;26873,994;   -4,050;27344,090; 0,00753
 935,93;26677,092;   -5,240;27197,990; 0,00840
 936,48;26514,193;   -4,400;27023,801; 0,00827
 937,03;26337,719;   -4,200;26766,480; 0,00701
 937,58;26158,344;   -5,690;26464,561; 0,00505
 938,13;25984,605;   -4,480;26201,770; 0,00361
 938,68;25763,932;   -5,880;25934,840; 0,00287
 939,23;25507,639;   -5,160;25676,439; 0,00286
 939,79;25184,795;   -5,070;25414,100; 0,00394
 940,34;24988,967;   -6,080;25203,430; 0,00371
 940,89;24835,186;   -4,270;25032,391; 0,00343
 941,44;24681,219;   -5,300;24840,369; 0,00279
 941,99;24417,475;   -4,800;24522,320; 0,00186
 942,54;24113,883;   -4,540;24182,000; 0,00122
 943,09;23952,816;   -5,610;24034,920; 0,00149
 943,64;23748,621;   -4,200;23834,420; 0,00157
 944,19;23528,617;   -5,030;23672,170; 0,00264
 944,74;23345,355;   -5,300;23518,789; 0,00321
 945,29;23137,010;   -3,990;23306,051; 0,00316
 945,84;22972,510;   -5,610;23165,619; 0,00363
 946,39;22793,854;   -4,910;22986,660; 0,00366
 946,94;22475,016;   -4,790;22675,699; 0,00386
 947,49;22133,705;   -5,330;22387,471; 0,00495
 948,04;21762,748;   -3,980;22068,510; 0,00606
 948,59;21459,643;   -5,170;21800,990; 0,00685
 949,14;21142,318;   -4,280;21527,580; 0,00784
 949,69;20841,521;   -5,030;21250,760; 0,00844
 950,24;20576,678;   -5,940;20985,150; 0,00853
 950,79;20345,271;   -4,710;20736,721; 0,00827
 951,34;20093,102;   -5,300;20465,539; 0,00797
 951,89;19790,723;   -5,260;20100,520; 0,00674
 952,44;19453,779;   -4,410;19715,711; 0,00581
 952,99;19171,852;   -5,390;19371,369; 0,00450
 953,54;18930,467;   -3,860;19078,789; 0,00339
 954,09;18767,801;   -4,380;18877,100; 0,00252
 954,64;18575,289;   -5,250;18636,279; 0,00142
 955,19;18373,230;   -4,400;18401,609; 0,00067
 955,74;18152,133;   -4,940;18155,859; 0,00009
 956,28;17919,389;   -4,380;17893,510;-0,00063
 956,83;17731,264;   -4,680;17643,250;-0,00216
 957,38;17492,570;   -5,380;17347,070;-0,00363
 957,93;17320,510;   -3,400;17152,770;-0,00423
 958,48;17185,365;   -5,480;17013,461;-0,00436
 959,03;17029,951;   -5,020;16856,600;-0,00444
 959,58;16878,113;   -4,420;16724,160;-0,00398
 960,13;16731,828;   -5,720;16608,330;-0,00322
 960,68;16617,145;   -4,910;16492,561;-0,00327
 961,23;16490,713;   -4,990;16392,471;-0,00259
 961,77;16298,468;   -5,000;16211,640;-0,00232
 962,32;16164,658;   -5,370;16097,210;-0,00182
 962,87;16044,431;   -6,110;15982,240;-0,00169
 963,42;15946,999;   -4,000;15860,510;-0,00236
 963,97;15890,995;   -5,080;15757,950;-0,00365
 964,52;15824,240;   -5,380;15681,280;-0,00394
 965,07;15740,112;   -4,410;15585,720;-0,00428
 965,61;15622,151;   -5,450;15473,890;-0,00414
 966,16;15478,186;   -3,610;15380,090;-0,00276
 966,71;15308,372;   -5,450;15270,690;-0,00107
 967,26;15169,645;   -5,140;15184,950; 0,00044
 967,81;15037,790;   -4,030;15096,060; 0,00168
 968,36;14949,964;   -5,160;15023,010; 0,00212
 968,90;14904,149;   -4,640;14990,150; 0,00250
 969,45;14846,286;   -4,550;14916,220; 0,00204
 970,00;14744,453;   -5,630;14777,730; 0,00098
 970,55;14625,688;   -3,350;14637,350; 0,00035
 971,10;14488,424;   -5,250;14506,530; 0,00054
 971,64;14356,397;   -5,250;14371,080; 0,00044
 972,19;14237,035;   -3,970;14263,620; 0,00081
 972,74;14153,548;   -5,570;14201,000; 0,00145
 973,29;14035,716;   -4,510;14089,410; 0,00166
 973,84;13952,727;   -4,950;14036,140; 0,00259
 974,38;13854,011;   -5,600;13941,620; 0,00274
 974,93;13768,076;   -4,430;13840,740; 0,00229
 975,48;13693,870;   -5,380;13758,010; 0,00203
 976,03;13586,948;   -4,680;13629,530; 0,00136
 976,57;13429,622;   -4,640;13476,650; 0,00152
 977,12;13304,311;   -5,850;13350,680; 0,00151
 977,67;13191,941;   -3,830;13258,000; 0,00217
 978,21;13111,221;   -4,870;13177,200; 0,00218
 978,76;13057,594;   -5,400;13111,170; 0,00178
 979,31;12996,690;   -4,280;13048,620; 0,00173
 979,86;12932,790;   -5,890;12960,060; 0,00091
 980,40;12825,802;   -3,950;12827,360; 0,00005
 980,95;12662,401;   -4,810;12640,050;-0,00077
 981,50;12541,989;   -5,340;12508,100;-0,00117
 982,04;12420,641;   -4,690;12391,190;-0,00103
 982,59;12332,324;   -5,010;12287,900;-0,00157
 983,14;12282,543;   -4,500;12222,670;-0,00212
 983,68;12222,036;   -4,830;12128,500;-0,00334
 984,23;12172,529;   -5,010;12049,280;-0,00442
 984,78;12088,965;   -4,610;11944,090;-0,00523
 985,32;11963,751;   -5,510;11810,330;-0,00560
 985,87;11857,777;   -4,830;11708,240;-0,00551
 986,42;11742,341;   -5,000;11640,170;-0,00379
 986,96;11652,157;   -5,370;11594,430;-0,00216
 987,51;11592,636;   -4,520;11558,620;-0,00128
 988,06;11514,181;   -4,880;11501,700;-0,00047
 988,60;11439,897;   -5,390;11420,290;-0,00074
 989,15;11395,030;   -3,700;11369,250;-0,00098
 989,70;11352,274;   -5,940;11305,870;-0,00178
 990,24;11241,317;   -4,560;11206,760;-0,00134
 990,79;11101,857;   -4,310;11087,350;-0,00057
 991,33;10934,468;   -5,470;10930,040;-0,00018
 991,88;10828,831;   -4,240;10842,920; 0,00056
 992,43;10744,307;   -5,490;10777,170; 0,00133
 992,97;10698,834;   -4,790;10741,860; 0,00174
 993,52;10641,793;   -4,360;10698,580; 0,00231
 994,06;10597,197;   -5,950;10650,830; 0,00219
 994,61;10537,794;   -4,310;10571,760; 0,00140
 995,16;10463,233;   -5,630;10471,100; 0,00033
 995,70;10359,634;   -5,200;10371,270; 0,00049
 996,25;10271,669;   -4,500;10296,830; 0,00106
 996,79;10186,639;   -5,620;10218,820; 0,00137
 997,34;10140,748;   -4,660;10161,500; 0,00089
 997,88;10111,153;   -5,770;10127,660; 0,00071
 998,43;10093,379;   -4,640;10085,700;-0,00033
 998,97;10030,883;   -4,290;10019,590;-0,00049
 999,52; 9974,594;   -6,010; 9968,160;-0,00028
1000,06; 9904,039;   -3,690; 9876,730;-0,00120
1000,61; 9840,097;   -5,250; 9803,430;-0,00162
1001,15; 9775,336;   -4,380; 9738,910;-0,00162
1001,70; 9672,131;   -4,470; 9624,200;-0,00216
1002,24; 9606,460;   -5,630; 9563,420;-0,00195
1002,79; 9553,962;   -4,970; 9502,060;-0,00236
1003,33; 9486,635;   -4,530; 9432,710;-0,00247
1003,88; 9439,714;   -5,840; 9374,950;-0,00299
1004,42; 9395,833;   -4,120; 9324,690;-0,00330
1004,97; 9315,705;   -5,180; 9225,660;-0,00422
1005,51; 9241,026;   -4,080; 9137,250;-0,00490
1006,06; 9160,362;   -4,390; 9064,210;-0,00458
1006,60; 9087,852;   -5,080; 9000,450;-0,00419
1007,15; 9039,922;   -4,410; 8970,750;-0,00333
1007,69; 9015,278;   -5,280; 8959,880;-0,00268
1008,24; 8977,507;   -4,130; 8926,770;-0,00246
1008,78; 8956,988;   -4,200; 8910,540;-0,00226
1009,33; 8922,664;   -5,810; 8852,000;-0,00345
1009,87; 8877,173;   -4,050; 8785,950;-0,00448
1010,41; 8809,359;   -4,190; 8718,190;-0,00452
1010,96; 8731,999;   -4,880; 8653,400;-0,00392
1011,50; 8642,596;   -4,040; 8595,450;-0,00237
1012,05; 8559,364;   -6,020; 8542,090;-0,00088
1012,59; 8488,056;   -4,150; 8490,710; 0,00014
1013,13; 8419,091;   -4,720; 8443,330; 0,00125
1013,68; 8369,274;   -6,010; 8407,830; 0,00199
1014,22; 8324,876;   -4,280; 8378,670; 0,00280
1014,77; 8273,586;   -5,110; 8318,100; 0,00233
1015,31; 8227,839;   -4,910; 8289,820; 0,00326
1015,85; 8171,109;   -4,480; 8215,140; 0,00233
1016,40; 8103,411;   -5,330; 8154,130; 0,00271
1016,94; 8031,461;   -4,280; 8077,930; 0,00250
1017,48; 7972,989;   -5,540; 8028,450; 0,00301
1018,03; 7937,533;   -4,650; 7978,760; 0,00225
1018,57; 7904,069;   -4,090; 7949,860; 0,00251
1019,11; 7855,444;   -5,090; 7885,330; 0,00165
1019,66; 7809,089;   -3,750; 7829,640; 0,00114
1020,20; 7778,678;   -4,760; 7793,890; 0,00085
1020,74; 7711,446;   -5,630; 7718,160; 0,00038
1021,29; 7665,208;   -4,190; 7667,550; 0,00013
1021,83; 7588,039;   -5,310; 7594,580; 0,00037
1022,37; 7518,427;   -3,610; 7540,630; 0,00128
1022,92; 7458,531;   -5,180; 7479,900; 0,00124
1023,46; 7409,435;   -5,780; 7429,110; 0,00115
1024,00; 7364,214;   -4,020; 7383,280; 0,00112
1024,55; 7315,215;   -4,870; 7330,130; 0,00088
1025,09; 7269,332;   -5,020; 7268,570;-0,00005
1025,63; 7226,264;   -3,890; 7212,820;-0,00081
1026,17; 7165,759;   -5,870; 7132,950;-0,00199
1026,72; 7113,830;   -4,050; 7084,930;-0,00177
1027,26; 7061,048;   -4,910; 7045,470;-0,00096
1027,80; 6982,558;   -4,650; 6975,380;-0,00045
1028,35; 6914,945;   -4,640; 6912,900;-0,00013
1028,89; 6853,704;   -4,890; 6867,440; 0,00087
1029,43; 6813,956;   -4,580; 6821,670; 0,00049
1029,97; 6773,896;   -4,740; 6789,780; 0,00102
1030,52; 6732,001;   -5,550; 6738,320; 0,00041
1031,06; 6666,655;   -4,120; 6676,420; 0,00064
1031,60; 6588,908;   -5,810; 6603,160; 0,00094
1032,14; 6488,607;   -5,200; 6495,630; 0,00047
1032,68; 6392,098;   -4,830; 6410,420; 0,00124
1033,23; 6292,549;   -5,810; 6317,860; 0,00174
1033,77; 6209,258;   -3,960; 6248,880; 0,00276
1034,31; 6117,159;   -4,820; 6152,870; 0,00253
1034,85; 6033,757;   -5,210; 6059,240; 0,00183
1035,39; 5931,774;   -3,920; 5971,980; 0,00293
1035,94; 5857,476;   -5,370; 5896,920; 0,00291
1036,48; 5778,537;   -4,260; 5823,600; 0,00337
1037,02; 5685,099;   -4,420; 5728,940; 0,00333
1037,56; 5608,949;   -5,180; 5648,680; 0,00306
1038,10; 5515,969;   -4,360; 5562,550; 0,00365
1038,64; 5445,373;   -5,440; 5491,590; 0,00367
1039,19; 5373,246;   -4,650; 5419,230; 0,00370
1039,73; 5311,043;   -5,160; 5369,880; 0,00478
1040,27; 5252,600;   -5,690; 5309,110; 0,00464
1040,81; 5185,722;   -4,210; 5239,750; 0,00450
1041,35; 5129,513;   -5,490; 5186,040; 0,00475
1041,89; 5073,811;   -4,930; 5123,780; 0,00425
1042,43; 5010,155;   -4,340; 5057,990; 0,00412
1042,97; 4948,901;   -5,580; 4990,310; 0,00361
1043,52; 4879,207;   -4,680; 4912,820; 0,00298
1044,06; 4812,475;   -5,210; 4841,550; 0,00261
1044,60; 4751,888;   -5,120; 4781,030; 0,00265
1045,14; 4690,192;   -3,890; 4720,880; 0,00283
1045,68; 4630,537;   -5,170; 4662,460; 0,00298
1046,22; 4585,771;   -4,340; 4623,480; 0,00355
1046,76; 4531,286;   -4,650; 4559,910; 0,00273
1047,30; 4473,357;   -5,540; 4498,530; 0,00243
1047,84; 4407,202;   -4,030; 4418,730; 0,00113
1048,38; 4344,312;   -5,360; 4360,870; 0,00165
1048,92; 4280,329;   -3,920; 4288,420; 0,00082
1049,46; 4214,388;   -4,790; 4242,440; 0,00288
1050,00; 4157,455;   -5,580; 4186,520; 0,00302
1050,55; 4101,733;   -3,840; 4143,980; 0,00445
1051,09; 4050,488;   -5,310; 4100,720; 0,00535
1051,63; 4003,124;   -4,550; 4052,500; 0,00532
1052,17; 3950,122;   -4,490; 3998,350; 0,00526
1052,71; 3895,973;   -6,140; 3951,080; 0,00609
1053,25; 3832,637;   -4,010; 3891,420; 0,00660
1053,79; 3767,760;   -5,360; 3828,450; 0,00693
1054,33; 3709,065;   -5,130; 3766,540; 0,00667
1054,87; 3645,421;   -4,130; 3708,690; 0,00746
1055,41; 3591,015;   -5,480; 3649,980; 0,00706
1055,95; 3535,697;   -4,260; 3588,100; 0,00638
1056,49; 3484,611;   -5,190; 3535,370; 0,00627
1057,03; 3436,254;   -5,560; 3486,850; 0,00634
1057,57; 3392,228;   -3,520; 3439,990; 0,00607
1058,11; 3354,872;   -5,370; 3383,660; 0,00370
1058,64; 3313,132;   -4,350; 3343,180; 0,00392
1059,18; 3270,705;   -4,550; 3293,800; 0,00305
1059,72; 3226,856;   -5,480; 3241,990; 0,00203
1060,26; 3186,206;   -4,090; 3201,940; 0,00214
1060,80; 3144,101;   -4,510; 3154,970; 0,00150
1061,34; 3110,817;   -4,460; 3115,070; 0,00059
1061,88; 3073,565;   -3,590; 3077,030; 0,00049
1062,42; 3038,551;   -5,740; 3045,270; 0,00096
1062,96; 3007,839;   -4,310; 3025,010; 0,00247
1063,50; 2979,280;   -5,350; 2993,410; 0,00205
1064,04; 2949,413;   -5,460; 2963,800; 0,00211
1064,58; 2923,880;   -4,990; 2924,470; 0,00009
1065,12; 2895,157;   -5,890; 2904,230; 0,00136
1065,65; 2863,696;   -3,870; 2865,690; 0,00030
1066,19; 2824,959;   -4,810; 2835,370; 0,00159
1066,73; 2786,404;   -5,350; 2800,280; 0,00215
1067,27; 2752,620;   -4,520; 2762,060; 0,00148
1067,81; 2714,987;   -5,810; 2735,960; 0,00333
1068,35; 2684,360;   -4,170; 2699,210; 0,00239
1068,89; 2654,425;   -4,580; 2670,170; 0,00256
1069,43; 2619,404;   -5,540; 2634,550; 0,00250
1069,96; 2584,612;   -4,090; 2596,090; 0,00192
1070,50; 2549,329;   -4,510; 2570,060; 0,00351
1071,04; 2512,618;   -4,930; 2528,510; 0,00273
1071,58; 2476,814;   -3,880; 2493,280; 0,00287
1072,12; 2438,378;   -5,070; 2451,740; 0,00237
1072,66; 2406,418;   -3,450; 2423,570; 0,00308
1073,19; 2372,647;   -4,770; 2391,310; 0,00340
1073,73; 2341,680;   -4,980; 2354,910; 0,00244
1074,27; 2311,119;   -4,190; 2327,680; 0,00310
1074,81; 2284,325;   -5,570; 2301,810; 0,00330
1075,35; 2256,353;   -5,210; 2269,660; 0,00255
1075,88; 2224,241;   -5,230; 2236,620; 0,00240
1076,42; 2189,260;   -5,230; 2203,100; 0,00273
1076,96; 2155,190;   -4,210; 2164,790; 0,00193
1077,50; 2121,184;   -5,500; 2138,550; 0,00353
1078,04; 2087,382;   -4,970; 2102,580; 0,00314
1078,57; 2055,393;   -4,380; 2073,000; 0,00370
1079,11; 2025,500;   -4,950; 2040,050; 0,00310
1079,65; 2001,107;   -3,650; 2014,700; 0,00293
1080,19; 1975,123;   -5,290; 1984,620; 0,00208
1080,72; 1948,897;   -4,470; 1964,020; 0,00335
1081,26; 1922,414;   -4,650; 1930,320; 0,00178
1081,80; 1892,564;   -5,560; 1900,940; 0,00191
1082,33; 1867,479;   -4,390; 1873,440; 0,00138
1082,87; 1836,299;   -5,110; 1844,120; 0,00184
1083,41; 1805,756;   -4,820; 1810,850; 0,00122
1083,95; 1773,733;   -4,500; 1775,550; 0,00044
1084,48; 1742,996;   -5,030; 1753,850; 0,00269
1085,02; 1715,387;   -4,120; 1724,910; 0,00240
1085,56; 1688,377;   -4,560; 1700,500; 0,00310
1086,09; 1661,525;   -5,520; 1674,730; 0,00343
1086,63; 1637,286;   -4,290; 1651,720; 0,00380
1087,17; 1611,862;   -5,300; 1627,220; 0,00410
1087,70; 1588,137;   -4,140; 1604,150; 0,00435
1088,24; 1564,359;   -4,420; 1572,200; 0,00217
1088,78; 1540,006;   -5,010; 1551,530; 0,00323
1089,31; 1515,636;   -3,850; 1522,490; 0,00195
1089,85; 1491,460;   -4,800; 1497,050; 0,00162
1090,39; 1464,985;   -4,850; 1476,550; 0,00340
1090,92; 1441,685;   -4,590; 1451,170; 0,00284
1091,46; 1418,878;   -5,650; 1427,690; 0,00268
1092,00; 1400,708;   -3,620; 1411,450; 0,00331
1092,53; 1380,120;   -4,630; 1390,670; 0,00330
1093,07; 1360,691;   -5,160; 1376,010; 0,00484
1093,60; 1341,576;   -4,120; 1345,460; 0,00125
1094,14; 1321,348;   -5,750; 1331,200; 0,00321
1094,68; 1300,375;   -3,720; 1305,940; 0,00185
1095,21; 1280,541;   -4,920; 1286,510; 0,00201
1095,75; 1258,538;   -4,420; 1266,720; 0,00280
1096,28; 1238,285;   -4,030; 1246,350; 0,00281
1096,82; 1218,398;   -5,260; 1227,440; 0,00320
1097,36; 1200,606;   -4,580; 1212,290; 0,00419
1097,89; 1184,969;   -4,390; 1196,790; 0,00430
1098,43; 1168,997;   -5,170; 1182,850; 0,00509
1098,96; 1153,829;   -4,790; 1165,790; 0,00446
1099,50; 1138,356;   -5,350; 1150,720; 0,00467
1100,03; 1122,829;   -5,330; 1133,920; 0,00425

